1.617791
1.637341
1.622678
1.617791
1.617791
1.612903
1.637341
1.622678
1.627566
1.652004
1.617791
1.612903
1.622678
1.661779
1.617791
1.632454
1.622678
1.593353
1.647116
1.617791
1.622678
1.637341
1.612903
1.603128
1.622678
1.617791
1.612903
1.637341
1.642229
1.612903
1.632454
1.622678
1.608016
1.622678
1.622678
1.637341
1.612903
1.632454
1.627566
1.622678
1.622678
1.603128
1.622678
1.622678
1.637341
1.612903
1.666667
1.656891
1.637341
1.666667
1.647116
1.695992
1.681329
1.041056
1.446725
1.818182
1.212121
2.165200
3.132942
3.049853
1.515152
1.754643
1.803519
0.786901
1.989247
1.886608
1.823069
1.168133
2.038123
1.476051
2.253177
2.008798
1.666667
0.684262
1.295210
0.581623
1.764418
1.001955
1.783969
1.388074
0.659824
1.036168
2.145650
2.067449
1.549365
1.769306
1.637341
1.182796
2.204301
1.940371
2.380254
0.620723
2.297165
0.899316
2.189638
2.712610
1.251222
1.847507
1.231672
1.006843
1.119257
1.319648
1.520039
1.588465
1.617791
1.691105
1.725318
1.720430
1.774194
1.803519
1.788856
1.803519
1.779081
1.744868
1.681329
1.700880
1.686217
1.676442
1.652004
1.661779
1.642229
1.642229
1.642229
1.642229
1.652004
1.661779
1.666667
1.661779
1.627566
1.627566
1.647116
1.656891
1.647116
1.656891
1.612903
1.637341
1.632454
1.612903
1.627566
1.637341
1.642229
1.647116
1.642229
1.652004
1.637341
1.632454
1.617791
1.627566
1.622678
1.735093
1.104594
0.694037
1.080156
2.189638
1.837732
1.187683
1.373412
2.781036
1.627566
2.658847
2.375367
1.671554
1.808407
2.434018
0.796676
2.614858
0.630499
1.886608
1.695992
1.959922
3.044966
1.300098
1.871945
2.086999
2.712610
1.823069
1.735093
1.050831
1.515152
0.278592
2.126100
1.857283
1.045943
1.461388
1.461388
2.248289
2.233627
2.047898
1.300098
1.867058
1.881720
2.492669
0.571848
2.575758
1.881720
1.417400
1.432063
1.119257
2.057674
2.424242
1.480938
1.256109
1.246334
1.339198
1.588465
1.735093
1.720430
1.735093
1.759531
1.759531
1.783969
1.847507
1.808407
1.798631
1.774194
1.769306
1.739980
1.720430
1.720430
1.700880
1.666667
1.642229
1.637341
1.652004
1.642229
1.588465
1.554252
1.593353
1.588465
1.608016
1.608016
1.598240
1.603128
1.617791
1.627566
1.647116
1.622678
1.617791
1.622678
1.637341
1.666667
1.632454
1.622678
1.588465
1.617791
1.593353
1.603128
1.583578
1.622678
2.262952
1.593353
3.739003
2.111437
0.767351
1.158358
2.614858
1.036168
1.999022
2.614858
0.532747
1.891496
1.173021
1.373412
1.050831
2.653959
1.304985
1.695992
0.855327
1.099707
1.026393
0.816227
1.402737
1.207234
1.202346
2.096774
0.821114
1.319648
2.238514
0.869990
0.689150
1.016618
0.615836
1.896383
0.738025
1.451613
1.788856
2.370479
1.285435
1.539589
0.962854
1.388074
0.166178
3.093842
2.287390
3.347996
2.272727
1.397849
0.811339
2.297165
0.962854
1.021505
1.324536
1.495601
1.671554
1.779081
1.779081
1.774194
1.813294
1.827957
1.827957
1.803519
1.813294
1.754643
1.749756
1.798631
1.730205
1.720430
1.715543
1.676442
1.705767
1.666667
1.652004
1.622678
1.632454
1.588465
1.666667
1.608016
1.627566
1.637341
1.652004
1.622678
1.647116
1.608016
1.632454
1.632454
1.627566
1.637341
1.612903
1.583578
1.598240
1.603128
1.612903
1.603128
1.539589
1.622678
1.593353
1.632454
1.612903
1.485826
1.837732
1.177908
2.096774
1.246334
1.573803
1.632454
1.632454
1.788856
3.216031
2.781036
1.226784
2.653959
1.617791
0.351906
1.803519
1.422287
1.221896
1.842620
1.700880
1.329423
1.603128
1.647116
0.684262
1.911046
2.135875
1.353861
1.764418
1.759531
1.339198
1.974585
1.974585
1.270772
2.052786
2.111437
1.412512
2.267840
1.871945
1.412512
2.023460
1.735093
1.397849
1.793744
1.647116
0.806452
1.119257
1.573803
1.309873
0.865103
2.248289
2.497556
2.028348
0.977517
1.388074
1.539589
1.686217
1.730205
1.715543
1.691105
1.695992
1.666667
1.686217
1.695992
1.695992
1.695992
1.691105
1.671554
1.671554
1.661779
1.671554
1.632454
1.647116
1.671554
1.637341
1.632454
1.617791
1.612903
1.622678
1.637341
1.617791
1.612903
1.617791
1.632454
1.715543
1.622678
1.593353
1.593353
1.627566
1.652004
1.466276
1.612903
1.534702
1.622678
1.598240
1.617791
1.632454
1.608016
1.583578
1.583578
1.510264
1.612903
1.661779
1.686217
1.759531
1.754643
1.632454
1.573803
1.510264
1.749756
1.612903
1.642229
1.608016
1.691105
1.652004
1.681329
1.598240
1.617791
1.725318
1.573803
1.642229
1.652004
1.632454
1.681329
1.656891
1.681329
1.681329
1.622678
1.608016
1.642229
1.593353
1.632454
1.637341
1.656891
1.710655
1.637341
1.652004
1.612903
1.681329
1.642229
1.622678
1.647116
1.612903
1.524927
1.593353
1.720430
1.656891
1.647116
1.568915
1.578690
1.554252
1.617791
1.695992
1.637341
1.612903
1.583578
1.534702
1.573803
1.578690
1.588465
1.632454
1.652004
1.671554
1.681329
1.686217
1.681329
1.691105
1.642229
1.652004
1.666667
1.642229
1.627566
1.652004
1.632454
1.622678
1.652004
1.622678
1.622678
1.637341
1.617791
1.632454
1.637341
1.627566
1.632454
1.622678
1.617791
1.617791
1.622678
1.637341
1.608016
1.632454
1.612903
1.603128
1.627566
1.627566
1.622678
1.642229
1.622678
1.617791
1.632454
1.637341
1.578690
1.627566
1.705767
1.720430
1.720430
1.637341
1.642229
1.603128
1.608016
1.564027
1.568915
1.515152
1.603128
1.617791
1.642229
1.612903
1.588465
1.603128
1.617791
1.588465
1.627566
1.608016
1.637341
1.608016
1.500489
1.588465
1.691105
1.593353
1.568915
1.632454
1.627566
1.583578
1.642229
1.627566
1.632454
1.617791
1.617791
1.647116
1.647116
1.730205
1.656891
1.588465
1.661779
1.637341
1.720430
1.564027
1.637341
1.656891
1.705767
1.568915
1.715543
1.617791
1.603128
1.549365
1.612903
1.583578
1.608016
1.539589
1.578690
1.593353
1.593353
1.617791
1.647116
1.652004
1.652004
1.656891
1.642229
1.647116
1.656891
1.632454
1.622678
1.656891
1.627566
1.647116
1.617791
1.637341
1.622678
1.637341
1.608016
1.627566
1.617791
1.642229
1.632454
1.632454
1.622678
1.622678
1.627566
1.608016
1.598240
1.622678
1.612903
1.627566
1.622678
1.617791
1.617791
1.627566
1.622678
1.617791
1.627566
1.598240
1.617791
1.632454
1.622678
1.612903
1.603128
1.622678
1.617791
1.627566
1.617791
1.632454
1.612903
1.647116
1.627566
1.617791
1.617791
1.627566
1.608016
1.642229
1.622678
1.627566
1.608016
1.612903
1.637341
1.612903
1.617791
1.632454
1.608016
1.622678
1.603128
1.617791
1.617791
1.627566
1.617791
1.612903
1.617791
1.617791
1.632454
1.627566
1.642229
1.642229
1.622678
1.622678
1.632454
1.608016
1.627566
1.617791
1.637341
1.622678
1.622678
1.617791
1.642229
1.617791
1.627566
1.652004
1.627566
1.627566
1.637341
1.612903
1.612903
1.627566
1.612903
1.637341
1.617791
1.612903
1.627566
1.608016
1.617791
1.637341
1.632454
1.627566
1.622678
1.612903
1.622678
1.627566
1.622678
1.617791
1.617791
1.632454
1.617791
1.632454
1.612903
1.598240
1.627566
1.627566
1.622678
1.642229
1.637341
1.598240
1.617791
1.642229
1.642229
1.622678
1.588465
1.612903
1.632454
1.632454
1.617791
1.637341
1.637341
1.632454
1.612903
1.632454
1.627566
1.637341
1.617791
1.608016
1.642229
1.632454
1.632454
1.632454
1.642229
1.637341
1.627566
1.637341
1.627566
1.617791
1.617791
1.627566
1.612903
1.617791
1.612903
1.632454
1.608016
1.627566
1.642229
1.612903
1.632454
1.632454
1.603128
1.627566
1.617791
1.603128
1.617791
1.622678
1.608016
1.622678
1.627566
1.593353
1.612903
1.622678
1.612903
1.627566
1.627566
1.632454
1.632454
1.622678
1.617791
1.632454
1.617791
1.642229
1.647116
1.632454
1.632454
1.617791
1.647116
1.632454
1.617791
1.622678
1.637341
1.637341
1.622678
1.642229
1.617791
1.627566
1.632454
1.617791
1.627566
1.617791
1.642229
1.617791
1.622678
1.647116
1.612903
1.608016
1.617791
1.612903
1.627566
1.627566
1.632454
1.612903
1.627566
1.642229
1.608016
1.612903
1.612903
1.622678
1.622678
1.627566
1.612903
1.627566
1.637341
1.612903
1.617791
1.627566
1.622678
1.632454
1.612903
1.627566
1.656891
1.632454
1.627566
1.642229
1.637341
1.617791
1.637341
1.622678
1.617791
1.617791
1.627566
1.617791
1.617791
1.617791
1.598240
1.627566
1.612903
1.627566
1.642229
1.622678
1.632454
1.637341
1.637341
1.637341
1.632454
1.627566
1.622678
1.608016
1.632454
1.617791
1.608016
1.632454
1.647116
1.637341
1.632454
1.622678
1.617791
1.622678
1.647116
1.647116
1.632454
1.666667
1.632454
1.632454
1.622678
1.637341
1.627566
1.642229
1.617791
1.642229
1.627566
1.622678
1.627566
1.612903
1.617791
1.642229
1.603128
1.617791
1.627566
1.622678
1.608016
1.627566
1.608016
1.627566
1.632454
1.642229
1.617791
1.622678
1.612903
1.608016
1.627566
1.637341
1.622678
1.608016
1.612903
1.627566
1.622678
1.627566
1.632454
1.622678
1.622678
1.622678
1.627566
1.637341
1.617791
1.637341
1.612903
1.642229
1.608016
1.617791
1.637341
1.612903
1.622678
1.622678
1.603128
1.622678
1.627566
1.632454
1.627566
1.632454
1.632454
1.632454
1.642229
1.627566
1.598240
1.627566
1.632454
1.622678
1.642229
1.612903
1.637341
1.632454
1.632454
1.622678
1.642229
1.622678
1.622678
1.622678
1.622678
1.652004
1.656891
1.637341
1.647116
1.661779
1.642229
1.666667
1.642229
1.671554
1.656891
1.647116
1.647116
1.656891
1.627566
1.652004
1.666667
1.637341
1.622678
1.617791
1.603128
1.656891
1.642229
1.676442
1.608016
1.544477
1.573803
1.598240
1.578690
1.593353
1.603128
1.593353
1.603128
1.588465
1.608016
1.622678
1.622678
1.647116
1.647116
1.632454
1.652004
1.637341
1.642229
1.637341
1.627566
1.647116
1.632454
1.637341
1.612903
1.617791
1.627566
1.608016
1.612903
1.627566
1.647116
1.627566
1.612903
1.617791
1.617791
1.608016
1.593353
1.608016
1.622678
1.608016
1.617791
1.608016
1.622678
1.588465
1.598240
1.603128
1.593353
1.588465
1.593353
1.617791
1.632454
1.617791
1.647116
1.642229
1.617791
1.632454
1.627566
1.642229
1.642229
1.642229
1.637341
1.652004
1.627566
1.627566
1.627566
1.647116
1.647116
1.656891
1.661779
1.632454
1.627566
1.627566
1.617791
1.656891
1.632454
1.666667
1.632454
1.608016
1.627566
1.627566
1.612903
1.588465
1.588465
1.583578
1.603128
1.564027
1.608016
1.622678
1.622678
1.647116
1.637341
1.637341
1.642229
1.661779
1.642229
1.647116
1.627566
1.647116
1.686217
1.652004
1.661779
1.656891
1.666667
1.642229
1.647116
1.642229
1.661779
1.656891
1.661779
1.637341
1.637341
1.647116
1.661779
1.656891
1.661779
1.647116
1.652004
1.622678
1.617791
1.647116
1.647116
1.642229
1.632454
1.627566
1.647116
1.612903
1.661779
1.627566
1.637341
1.627566
1.637341
1.632454
1.652004
1.612903
1.627566
1.612903
1.632454
1.632454
1.652004
1.637341
1.642229
1.627566
1.622678
1.617791
1.637341
1.637341
1.632454
1.642229
1.627566
1.622678
1.637341
1.637341
1.642229
1.637341
1.637341
1.627566
1.617791
1.612903
1.652004
1.642229
1.627566
1.617791
1.647116
1.608016
1.617791
1.627566
1.652004
1.637341
1.612903
1.627566
1.612903
1.627566
1.647116
1.627566
1.632454
1.642229
1.612903
1.622678
1.622678
1.637341
1.612903
1.642229
1.617791
1.637341
1.637341
1.622678
1.617791
1.637341
1.637341
1.627566
1.642229
1.652004
1.627566
1.647116
1.622678
1.627566
1.632454
1.637341
1.617791
1.627566
1.622678
1.603128
1.627566
1.652004
1.627566
1.656891
1.622678
1.642229
1.632454
1.617791
1.612903
1.642229
1.627566
1.632454
1.637341
1.642229
1.647116
1.612903
1.612903
1.642229
1.652004
1.632454
1.647116
1.652004
1.642229
1.637341
1.642229
1.622678
1.627566
1.622678
1.647116
1.642229
1.637341
1.632454
1.647116
1.642229
1.637341
1.632454
1.627566
1.652004
1.642229
1.622678
1.622678
1.642229
1.632454
1.637341
1.632454
1.632454
1.632454
1.637341
1.642229
1.617791
1.642229
1.642229
1.647116
1.632454
1.627566
1.637341
1.637341
1.632454
1.627566
1.627566
1.608016
1.637341
1.656891
1.627566
1.632454
1.632454
1.627566
1.637341
1.632454
1.627566
1.637341
1.617791
1.637341
1.642229
1.627566
1.632454
1.637341
1.632454
1.622678
1.627566
1.632454
1.637341
1.632454
1.622678
1.627566
1.632454
1.637341
1.637341
1.632454
1.647116
1.617791
1.612903
1.632454
1.642229
1.608016
1.632454
1.637341
1.617791
1.627566
1.637341
1.617791
1.642229
1.637341
1.627566
1.652004
1.617791
1.617791
1.603128
1.642229
1.642229
1.612903
1.847507
1.495601
1.500489
1.783969
1.588465
1.652004
1.544477
1.612903
1.647116
1.725318
1.725318
1.691105
1.568915
1.656891
1.681329
1.568915
1.617791
1.622678
1.588465
1.451613
1.637341
1.559140
1.539589
1.603128
1.686217
1.705767
1.656891
1.686217
1.603128
1.647116
1.627566
1.647116
1.710655
1.681329
1.671554
1.686217
1.578690
1.603128
1.622678
1.622678
1.544477
1.666667
1.573803
1.647116
1.661779
1.588465
1.554252
1.603128
1.598240
1.695992
1.744868
1.608016
1.578690
1.637341
1.720430
1.598240
1.529814
1.686217
1.603128
1.397849
1.583578
1.642229
1.827957
1.656891
1.564027
1.730205
1.608016
1.652004
1.363636
1.915934
1.925709
1.632454
1.275660
1.295210
1.275660
1.173021
1.686217
1.642229
1.891496
1.652004
1.671554
1.441838
1.779081
1.681329
1.451613
1.534702
1.480938
1.901271
1.749756
1.417400
1.363636
1.564027
1.202346
1.559140
1.730205
1.339198
1.246334
1.441838
1.671554
1.559140
1.485826
1.417400
1.632454
1.788856
1.798631
1.700880
1.803519
1.710655
1.490714
1.779081
1.710655
1.769306
1.544477
1.891496
1.686217
1.617791
1.617791
1.891496
1.612903
1.451613
1.730205
1.632454
1.495601
1.568915
1.598240
1.857283
1.720430
1.632454
1.803519
1.735093
1.529814
1.226784
1.392962
1.441838
1.656891
1.598240
1.730205
1.700880
1.774194
1.598240
1.754643
1.730205
1.329423
1.627566
1.441838
1.735093
1.412512
1.661779
1.754643
1.529814
1.774194
1.901271
1.608016
1.647116
1.700880
1.774194
1.471163
1.564027
1.617791
1.720430
1.608016
1.730205
1.500489
1.578690
1.314761
1.774194
1.676442
1.876833
1.984360
1.627566
1.788856
1.666667
1.515152
1.402737
1.681329
1.666667
1.857283
1.749756
1.715543
2.248289
1.392962
1.642229
1.705767
1.583578
1.906158
1.348974
1.608016
1.495601
1.392962
1.622678
1.793744
1.280547
1.339198
1.344086
1.568915
1.544477
1.422287
1.622678
1.476051
1.529814
1.407625
1.598240
1.368524
1.842620
1.339198
1.476051
1.373412
1.827957
1.246334
1.862170
1.793744
1.524927
1.647116
1.886608
1.353861
1.891496
1.842620
1.671554
1.666667
1.617791
1.715543
1.422287
1.710655
1.681329
1.774194
1.759531
1.764418
1.739980
1.837732
1.744868
1.637341
1.779081
1.529814
1.451613
1.661779
1.554252
1.808407
1.236559
1.788856
1.979472
1.744868
1.529814
2.013685
1.344086
1.979472
1.549365
1.783969
1.612903
1.461388
1.564027
1.485826
1.764418
1.554252
1.862170
1.681329
1.871945
1.617791
1.402737
1.852395
1.598240
1.632454
1.862170
1.681329
1.471163
1.456500
1.520039
1.852395
1.524927
1.764418
1.769306
1.241447
1.637341
1.564027
1.407625
1.691105
1.559140
1.739980
1.837732
1.456500
1.691105
1.461388
1.612903
1.187683
1.314761
1.451613
1.656891
1.422287
1.612903
1.754643
1.427175
1.608016
1.436950
1.681329
1.568915
1.857283
1.133920
1.876833
1.730205
1.476051
1.764418
1.642229
1.334311
1.549365
1.676442
1.480938
1.407625
1.862170
1.598240
1.798631
1.754643
1.226784
1.798631
1.583578
1.520039
1.471163
2.140762
1.891496
2.052786
1.769306
1.407625
2.082111
1.559140
1.656891
1.358749
1.647116
1.730205
1.911046
1.984360
1.485826
1.788856
1.324536
1.676442
1.490714
1.524927
1.617791
1.451613
1.573803
1.798631
1.632454
1.627566
1.490714
1.436950
1.720430
1.495601
1.559140
1.417400
1.642229
1.324536
1.573803
1.837732
1.466276
1.808407
1.852395
1.573803
2.096774
1.285435
1.705767
1.226784
1.236559
1.495601
1.221896
1.544477
1.432063
1.686217
2.096774
1.304985
1.901271
1.656891
1.476051
1.710655
1.896383
1.994135
1.466276
1.471163
2.106549
1.451613
2.057674
1.827957
1.392962
2.038123
1.573803
1.896383
1.867058
1.285435
2.350929
1.344086
0.938416
1.397849
1.661779
1.813294
1.603128
1.906158
1.710655
1.241447
1.739980
1.456500
1.490714
1.270772
1.588465
1.783969
1.842620
1.661779
1.715543
1.554252
1.339198
1.715543
1.691105
1.490714
1.749756
1.798631
1.652004
1.881720
2.267840
1.578690
1.764418
1.627566
1.505376
1.627566
1.109482
2.204301
1.945259
1.031281
1.212121
1.329423
1.593353
1.388074
1.695992
1.476051
1.656891
1.080156
1.568915
1.485826
1.348974
1.686217
1.422287
1.603128
1.480938
1.173021
1.739980
1.862170
1.656891
1.573803
2.003910
2.091887
1.500489
1.608016
1.353861
1.539589
1.358749
1.397849
1.842620
1.930596
1.549365
1.867058
1.813294
1.515152
1.099707
1.402737
1.598240
1.392962
1.441838
1.329423
1.353861
1.451613
1.304985
1.652004
1.490714
1.915934
1.456500
1.847507
1.842620
1.705767
1.050831
1.710655
2.194526
1.573803
0.953079
1.495601
1.862170
1.217009
1.681329
1.813294
1.700880
1.173021
1.290323
1.471163
2.116325
1.554252
1.578690
1.456500
1.725318
1.999022
1.055718
1.314761
0.899316
1.837732
1.867058
1.060606
1.520039
1.984360
2.174976
1.710655
1.221896
1.236559
1.720430
1.432063
1.911046
1.583578
1.080156
1.226784
1.539589
1.901271
2.047898
1.246334
1.764418
2.336266
1.612903
2.165200
1.827957
1.583578
1.192571
1.251222
1.676442
1.568915
1.505376
1.735093
1.256109
1.715543
1.314761
1.529814
1.280547
1.407625
1.153470
1.388074
1.417400
2.111437
2.565982
1.011730
1.603128
1.314761
1.676442
1.691105
2.570870
2.038123
1.432063
1.730205
1.055718
1.256109
1.754643
2.722385
1.324536
1.906158
1.852395
2.365591
1.764418
1.700880
1.739980
2.101662
1.544477
1.891496
1.427175
2.160313
1.744868
1.436950
1.793744
1.383187
1.559140
1.764418
1.080156
1.725318
1.730205
1.759531
1.744868
1.241447
1.769306
1.314761
1.324536
1.695992
1.788856
1.466276
1.564027
1.744868
1.759531
1.544477
1.823069
1.827957
1.265885
1.031281
1.275660
1.441838
1.314761
1.436950
1.798631
1.700880
1.720430
1.324536
1.788856
1.466276
1.344086
1.515152
1.681329
1.129032
1.656891
1.612903
1.603128
1.915934
1.256109
1.564027
1.871945
1.539589
1.788856
1.422287
1.285435
2.062561
1.686217
1.173021
1.739980
1.686217
2.126100
1.950147
1.783969
1.432063
1.612903
1.730205
1.715543
1.427175
1.608016
1.348974
1.671554
1.422287
1.500489
1.637341
1.823069
1.612903
1.392962
1.207234
1.524927
1.383187
1.485826
1.549365
1.368524
1.392962
1.769306
1.803519
1.617791
1.823069
1.529814
1.422287
1.925709
1.676442
1.588465
1.500489
1.510264
1.964809
1.373412
1.344086
1.749756
1.133920
1.764418
1.710655
1.417400
1.744868
2.038123
1.725318
1.695992
1.388074
1.378299
1.348974
1.700880
1.647116
1.671554
1.666667
1.700880
1.940371
1.505376
1.573803
1.466276
1.598240
1.637341
1.515152
1.857283
1.612903
1.622678
1.671554
1.544477
1.818182
1.754643
1.720430
1.627566
1.671554
1.744868
1.847507
1.529814
1.378299
