1.803519
1.847507
1.911046
1.979472
1.969697
2.018573
2.057674
2.096774
2.145650
2.214076
2.145650
2.174976
2.116325
2.028348
2.023460
2.018573
1.911046
1.915934
1.837732
1.920821
1.945259
1.896383
1.867058
1.867058
1.896383
1.891496
1.857283
1.837732
1.754643
1.852395
1.901271
1.832845
1.783969
1.793744
1.769306
1.744868
1.710655
1.735093
1.652004
1.715543
1.700880
1.637341
1.681329
1.691105
1.695992
1.681329
1.744868
1.798631
1.779081
1.803519
1.764418
1.852395
1.818182
1.798631
1.730205
1.783969
1.793744
1.744868
1.744868
1.759531
1.720430
1.754643
1.759531
1.744868
1.710655
1.720430
1.749756
1.695992
1.725318
1.754643
1.759531
1.793744
1.808407
1.769306
1.754643
1.808407
1.695992
1.353861
1.666667
1.226784
0.415445
2.326491
0.967742
1.583578
2.355816
0.933529
1.671554
0.845552
1.598240
1.192571
2.341153
3.528837
3.900293
3.216031
4.002933
4.946237
4.276637
3.519062
4.521017
4.477028
3.294233
2.668622
2.331378
4.286413
2.991202
2.111437
1.124145
1.759531
2.282502
2.448680
0.444770
2.468231
2.292278
2.849462
1.348974
1.505376
1.026393
1.818182
0.596285
1.622678
0.904203
0.542522
2.629521
2.013685
1.109482
0.967742
1.124145
1.217009
0.263930
0.078201
0.249267
0.537634
0.068426
0.043988
0.000000
0.000000
0.000000
0.000000
0.000000
0.000000
0.000000
0.000000
0.000000
0.000000
0.000000
0.000000
0.000000
0.205279
0.381232
0.786901
1.124145
1.275660
1.373412
1.446725
1.642229
1.671554
1.676442
1.720430
1.818182
1.739980
2.028348
1.915934
2.028348
2.174976
2.155425
2.170088
2.130987
2.082111
2.502444
2.614858
2.414467
2.634409
2.492669
2.111437
1.847507
2.282502
1.163245
2.443793
1.608016
2.629521
3.304008
4.408602
3.279570
4.393939
4.696970
3.773216
3.406647
2.458456
3.616813
3.817204
2.810362
2.003910
2.913001
2.116325
3.558162
0.464321
3.333333
0.596285
2.399804
0.620723
1.769306
2.091887
1.094819
1.422287
1.026393
2.184751
1.104594
2.038123
0.366569
2.414467
1.158358
1.891496
0.938416
1.857283
1.358749
0.830890
0.488759
0.058651
0.004888
0.039101
0.000000
0.000000
0.000000
0.000000
0.000000
0.000000
0.000000
0.000000
0.000000
0.000000
0.000000
0.000000
0.000000
0.000000
0.063539
0.097752
0.434995
0.474096
0.713587
0.762463
0.992180
1.163245
1.217009
1.226784
1.456500
1.383187
1.549365
1.466276
1.637341
1.730205
1.759531
1.788856
1.700880
1.818182
1.896383
1.730205
1.759531
1.779081
1.793744
1.788856
1.735093
1.788856
1.735093
1.710655
1.759531
1.754643
1.402737
1.309873
1.647116
1.275660
0.923754
1.764418
1.212121
1.495601
2.717498
1.720430
2.854350
2.551320
3.870968
3.372434
4.315738
3.118280
4.130010
4.286413
3.162268
3.856305
4.418377
3.499511
4.198436
2.287390
4.042033
2.649071
2.277615
3.675464
2.859238
2.595308
3.005865
2.350929
2.101662
2.971652
2.033236
3.675464
1.168133
2.008798
0.625611
3.582600
2.194526
2.091887
1.080156
1.612903
1.045943
0.503421
0.048876
0.004888
0.000000
0.000000
0.000000
0.000000
0.000000
0.000000
0.000000
0.000000
0.000000
0.000000
0.000000
0.000000
0.000000
0.000000
0.000000
0.053763
0.180841
0.376344
0.474096
0.425220
0.733138
0.957967
1.119257
1.241447
1.295210
1.446725
1.568915
1.480938
1.681329
1.661779
1.622678
1.818182
1.730205
1.705767
1.891496
1.827957
1.837732
1.969697
1.749756
2.008798
1.837732
1.935484
1.818182
2.043011
1.871945
2.038123
2.077224
1.818182
2.043011
1.793744
0.698925
1.647116
1.568915
0.796676
1.344086
1.070381
3.475073
2.052786
2.556207
3.919844
3.328446
4.628543
4.188661
3.851417
3.973607
4.071359
2.365591
3.729228
2.839687
3.294233
2.282502
3.592375
1.441838
3.098729
3.132942
2.526882
1.265885
3.186706
1.999022
2.194526
3.939394
3.088954
2.091887
2.140762
1.568915
2.121212
1.256109
0.449658
0.078201
0.019550
0.004888
0.000000
0.000000
0.000000
0.000000
0.000000
0.000000
0.000000
0.000000
0.000000
0.000000
0.000000
0.141740
0.068426
0.361681
0.347019
0.650049
0.679374
0.928641
1.089932
1.217009
1.304985
1.461388
1.612903
1.735093
1.710655
1.744868
1.642229
1.783969
1.837732
1.842620
1.886608
1.832845
1.911046
1.915934
1.842620
1.935484
1.925709
1.827957
1.881720
1.925709
1.886608
1.891496
1.925709
1.955034
1.876833
1.842620
1.656891
2.057674
1.803519
1.700880
1.388074
1.397849
2.316716
2.565982
1.881720
2.072336
0.786901
1.471163
1.603128
1.490714
2.619746
3.279570
3.880743
3.284457
4.086022
4.608993
2.688172
4.442815
4.555230
3.172043
3.582600
2.849462
3.954057
2.438905
3.670577
2.419355
2.517107
2.204301
2.776149
3.093842
0.845552
2.629521
1.050831
2.160313
3.084066
0.835777
1.603128
2.067449
1.265885
1.578690
0.694037
0.733138
0.430108
0.151515
0.000000
0.000000
0.000000
0.000000
0.000000
0.000000
0.000000
0.000000
0.000000
0.000000
0.000000
0.000000
0.000000
0.000000
0.039101
0.347019
0.234604
0.752688
0.884653
0.987292
1.280547
1.280547
1.334311
1.329423
1.339198
1.505376
1.632454
1.441838
1.764418
1.622678
1.700880
1.818182
1.774194
1.788856
1.764418
1.896383
1.827957
1.832845
1.940371
1.779081
1.911046
1.754643
1.695992
1.906158
1.930596
1.739980
1.803519
1.730205
1.852395
1.725318
1.847507
1.603128
1.397849
2.429130
2.228739
1.510264
1.485826
1.969697
4.115347
3.470186
3.592375
3.230694
3.460411
4.931574
3.201369
3.250244
3.602151
3.015640
2.238514
3.250244
3.577713
1.085044
3.611926
1.925709
3.509286
2.326491
1.739980
1.720430
2.693060
1.319648
0.557185
2.209189
1.011730
2.306940
0.547410
1.681329
0.835777
2.038123
1.304985
1.392962
0.361681
0.640274
0.581623
0.391007
0.043988
0.117302
0.004888
0.000000
0.000000
0.000000
0.000000
0.000000
0.000000
0.004888
0.000000
0.019550
0.073314
0.151515
0.288368
0.610948
0.513196
0.728250
0.821114
0.987292
1.124145
1.212121
1.304985
1.436950
1.451613
1.500489
1.476051
1.652004
1.603128
1.720430
1.627566
1.691105
1.769306
1.788856
1.793744
1.813294
1.710655
1.832845
1.862170
1.730205
1.818182
1.964809
1.935484
1.920821
1.911046
1.788856
1.759531
1.925709
2.038123
1.852395
1.906158
1.920821
1.036168
1.735093
1.446725
1.847507
1.192571
2.619746
1.564027
2.683284
2.776149
4.271750
3.230694
1.329423
3.807429
2.981427
3.250244
2.795699
2.253177
3.851417
3.841642
3.641251
2.732160
3.626588
1.925709
2.145650
3.196481
2.145650
2.267840
2.590420
2.008798
1.725318
2.233627
2.702835
3.079179
1.436950
2.507331
1.827957
0.913978
2.262952
1.681329
0.571848
2.189638
1.647116
1.065494
0.430108
0.508309
0.263930
0.146628
0.019550
0.000000
0.083089
0.063539
0.000000
0.000000
0.000000
0.112414
0.219941
0.239492
0.317693
0.459433
0.503421
0.464321
0.733138
0.782014
1.026393
0.933529
1.177908
1.290323
1.339198
1.471163
1.490714
1.612903
1.568915
1.573803
1.725318
1.671554
1.730205
1.661779
1.813294
1.818182
1.852395
1.730205
1.969697
1.832845
1.886608
1.813294
2.018573
1.788856
1.925709
1.862170
1.686217
2.043011
2.008798
1.686217
1.652004
1.935484
1.881720
1.955034
1.148583
1.744868
2.336266
1.901271
2.795699
2.321603
2.429130
3.739003
2.771261
4.130010
2.937439
3.563050
4.247312
1.744868
4.437928
3.914956
3.225806
2.849462
3.132942
4.428152
1.930596
2.913001
2.023460
1.793744
3.435973
2.130987
3.025415
1.544477
2.297165
1.109482
1.964809
0.835777
1.485826
0.840665
0.283480
0.078201
0.024438
0.000000
0.000000
0.000000
0.000000
0.000000
0.000000
0.000000
0.000000
0.000000
0.000000
0.000000
0.000000
0.009775
0.127077
0.298143
0.371457
0.527859
0.576735
0.869990
1.080156
1.212121
1.520039
1.510264
1.485826
1.353861
1.647116
1.710655
1.637341
1.710655
1.705767
1.612903
1.788856
1.764418
1.676442
1.915934
1.735093
1.867058
1.837732
1.911046
1.876833
1.867058
1.930596
1.832845
2.091887
1.852395
1.857283
1.793744
1.783969
1.735093
1.720430
1.818182
1.676442
1.779081
1.700880
1.915934
1.720430
1.656891
1.891496
1.720430
1.744868
1.627566
1.608016
1.612903
1.603128
1.011730
2.311828
1.994135
0.943304
2.976540
3.304008
2.409580
3.743891
2.194526
4.169110
3.347996
3.435973
3.064516
3.504399
0.449658
4.696970
3.186706
2.170088
4.379277
3.421310
1.485826
3.856305
3.157380
0.659824
2.991202
2.678397
2.116325
2.253177
2.790811
0.796676
2.228739
1.363636
2.233627
1.251222
1.436950
0.405670
0.151515
0.092864
0.004888
0.000000
0.000000
0.000000
0.000000
0.000000
0.000000
0.000000
0.000000
0.000000
0.000000
0.000000
0.000000
0.092864
0.219941
0.430108
0.278592
0.625611
0.884653
1.045943
1.104594
1.148583
1.358749
1.417400
1.456500
1.593353
1.505376
1.661779
1.598240
1.735093
1.735093
1.695992
1.823069
1.730205
1.876833
1.783969
1.803519
1.837732
1.891496
1.793744
1.911046
1.876833
1.837732
1.837732
1.881720
1.852395
1.896383
1.891496
1.749756
1.871945
1.759531
1.842620
1.739980
1.700880
1.715543
1.652004
1.735093
1.691105
1.652004
1.808407
1.749756
1.603128
1.314761
1.226784
2.033236
1.050831
1.539589
2.507331
2.145650
3.220919
2.908113
3.362659
2.585533
2.282502
3.176931
1.852395
2.287390
3.323558
2.243402
3.695015
3.250244
3.357771
3.944282
2.355816
4.530792
1.608016
4.550342
2.820137
2.253177
2.233627
1.847507
1.075269
2.170088
1.906158
1.999022
0.425220
1.060606
0.733138
0.518084
0.347019
0.029326
0.000000
0.000000
0.000000
0.000000
0.000000
0.000000
0.000000
0.000000
0.000000
0.000000
0.000000
0.000000
0.127077
0.224829
0.263930
0.459433
0.547410
1.945259
1.911046
1.935484
1.803519
1.681329
1.911046
1.818182
1.925709
1.984360
2.160313
1.808407
1.876833
1.783969
1.940371
2.062561
1.539589
1.803519
1.158358
1.588465
1.348974
1.319648
1.089932
1.554252
1.397849
1.735093
1.432063
1.441838
1.744868
1.568915
1.803519
1.588465
1.339198
1.412512
1.339198
1.476051
1.373412
1.739980
1.656891
1.432063
1.231672
1.559140
1.466276
1.402737
1.427175
1.647116
1.177908
1.256109
2.003910
1.583578
3.602151
3.035191
3.137830
3.396872
3.030303
2.370479
2.575758
2.521994
2.204301
1.348974
1.412512
0.239492
0.000000
0.000000
0.000000
0.312805
0.811339
1.295210
1.436950
1.656891
1.783969
1.920821
1.925709
2.052786
1.847507
1.881720
1.759531
1.749756
1.779081
1.979472
1.886608
1.940371
1.647116
1.798631
1.896383
1.549365
1.480938
1.466276
1.432063
1.441838
1.603128
1.705767
1.632454
1.715543
1.725318
1.779081
1.754643
1.783969
0.894428
1.441838
3.093842
4.193548
4.056696
4.550342
3.157380
2.947214
0.674487
0.918866
1.026393
2.609971
1.632454
1.055718
1.793744
0.454545
0.439883
0.009775
0.000000
0.000000
0.000000
0.000000
0.000000
0.351906
1.001955
1.114370
1.319648
1.647116
1.676442
1.788856
1.754643
1.700880
1.720430
1.764418
1.661779
1.974585
1.979472
1.984360
1.735093
1.852395
1.857283
1.852395
2.106549
1.837732
2.189638
3.020528
3.582600
3.323558
1.539589
1.520039
1.735093
0.449658
0.879765
1.827957
2.394917
3.084066
1.241447
2.908113
0.259042
0.000000
0.000000
0.000000
0.000000
0.317693
0.782014
1.309873
1.676442
1.896383
1.886608
1.847507
1.759531
1.847507
1.671554
1.842620
1.744868
1.515152
2.033236
2.287390
2.668622
2.878788
3.313783
3.934506
2.790811
3.211144
3.255132
2.008798
3.260020
1.759531
0.327468
1.080156
1.495601
0.977517
0.009775
0.000000
0.000000
0.000000
0.000000
0.029326
0.097752
0.503421
0.913978
1.309873
1.480938
1.617791
1.793744
1.969697
1.862170
1.837732
1.940371
1.788856
1.847507
1.593353
1.827957
1.598240
2.248289
3.450635
2.771261
2.238514
3.093842
2.790811
1.173021
1.417400
2.287390
2.878788
1.642229
1.075269
0.542522
0.004888
0.000000
0.000000
0.000000
0.000000
0.053763
0.073314
0.532747
1.026393
1.441838
2.370479
2.321603
2.531769
2.619746
2.468231
1.989247
2.091887
1.700880
1.779081
1.764418
1.867058
1.842620
1.788856
1.647116
1.725318
1.666667
1.827957
1.871945
1.798631
1.436950
1.715543
1.402737
1.402737
1.456500
1.559140
1.515152
1.353861
1.529814
1.480938
1.432063
1.544477
1.383187
1.529814
1.373412
1.505376
1.480938
1.524927
1.568915
1.500489
1.471163
1.520039
1.456500
1.456500
1.363636
1.544477
1.441838
1.510264
1.451613
1.451613
1.559140
1.593353
1.485826
1.358749
1.480938
1.495601
1.456500
1.573803
1.505376
1.500489
1.436950
1.329423
1.529814
1.456500
1.500489
1.500489
1.554252
1.432063
1.510264
1.520039
1.270772
1.515152
0.083089
0.004888
0.092864
0.004888
0.000000
0.004888
0.000000
4.921799
4.433040
2.463343
0.117302
0.136852
0.000000
1.471163
2.160313
2.781036
0.234604
0.371457
0.884653
3.030303
4.775171
4.134897
4.315738
2.688172
4.887586
4.951124
4.266862
1.862170
3.924731
2.228739
0.303030
4.555230
0.860215
2.737048
2.355816
4.178886
1.901271
3.157380
0.757576
3.362659
2.761486
1.984360
3.924731
2.155425
0.625611
0.869990
0.024438
0.752688
0.708700
3.411535
1.622678
1.368524
0.107527
0.004888
1.231672
0.865103
0.029326
0.097752
1.085044
2.096774
0.347019
0.014663
3.274682
2.155425
1.842620
0.782014
3.250244
0.185728
1.441838
1.480938
0.845552
0.488759
3.484848
3.318671
4.824047
4.960899
4.956012
4.960899
4.970674
4.985337
4.970674
4.956012
4.956012
4.990225
4.970674
4.960899
4.990225
4.956012
4.985337
4.970674
4.960899
4.985337
4.965787
4.980450
4.995112
4.970674
4.965787
4.990225
4.956012
4.990225
4.975562
4.980450
4.990225
0.029326
0.000000
0.000000
0.000000
0.000000
0.000000
0.000000
0.000000
0.000000
0.000000
0.000000
0.000000
0.000000
0.000000
0.000000
0.000000
0.000000
0.000000
0.000000
0.000000
0.000000
0.000000
0.000000
0.000000
0.000000
0.000000
0.000000
0.000000
0.000000
0.000000
0.000000
0.000000
0.000000
0.000000
0.000000
0.000000
0.000000
0.000000
0.000000
0.000000
0.000000
1.720430
4.794721
4.975562
4.970674
3.269795
4.995112
4.975562
5.000000
4.975562
4.956012
4.960899
4.990225
4.970674
4.956012
4.980450
4.975562
4.990225
4.970674
4.956012
4.985337
4.965787
4.970674
4.960899
4.985337
4.951124
4.960899
4.985337
4.975562
4.970674
4.960899
4.965787
4.956012
4.985337
4.995112
4.975562
4.956012
4.956012
4.960899
4.985337
4.970674
4.956012
4.956012
4.985337
4.965787
4.990225
4.965787
4.985337
4.995112
4.980450
4.990225
4.985337
4.980450
4.960899
4.956012
4.990225
5.000000
4.965787
4.965787
4.990225
4.990225
4.990225
4.838710
4.623656
1.539589
0.063539
0.004888
0.000000
0.000000
0.000000
0.000000
0.000000
0.000000
0.000000
0.000000
0.000000
0.000000
0.000000
0.000000
0.000000
0.000000
0.000000
0.000000
0.000000
0.000000
0.000000
0.000000
0.000000
0.000000
0.000000
0.000000
0.000000
0.000000
0.000000
0.000000
0.000000
0.000000
4.178886
4.012708
4.051808
4.090909
3.988270
3.983382
3.983382
3.714565
3.797654
3.739003
3.782991
3.802542
3.651026
3.719453
3.670577
3.592375
3.626588
3.597263
3.533724
3.499511
3.401760
3.367546
3.479961
3.367546
3.338221
3.308895
3.235582
3.201369
3.279570
3.323558
3.225806
3.269795
3.191593
3.064516
3.093842
2.952102
2.991202
3.054741
3.079179
2.961877
2.937439
2.820137
2.898338
2.712610
2.903226
2.859238
2.717498
2.727273
2.839687
2.653959
2.653959
2.697947
2.316716
2.761486
2.619746
2.580645
2.570870
2.600196
2.536657
2.453568
2.443793
2.600196
2.536657
2.453568
2.380254
2.331378
2.336266
2.316716
1.495601
0.244379
0.014663
0.097752
1.930596
0.860215
4.731183
1.955034
4.125122
0.782014
0.845552
2.619746
4.765396
4.872923
1.036168
4.393939
3.015640
4.892473
3.655914
0.786901
1.725318
3.763441
2.458456
3.778104
2.492669
0.918866
1.793744
4.408602
1.290323
0.840665
1.754643
3.352884
0.518084
2.624633
2.297165
2.839687
0.146628
3.680352
0.703812
1.099707
4.188661
1.837732
0.625611
1.568915
3.274682
1.852395
3.538612
0.972630
3.030303
1.290323
1.964809
4.413490
1.886608
1.348974
1.016618
1.016618
1.045943
1.177908
1.045943
0.928641
0.762463
0.698925
0.508309
0.830890
0.332356
0.562072
0.337243
0.312805
0.180841
0.317693
0.097752
0.391007
0.386119
0.386119
0.537634
0.581623
0.552297
0.635386
0.752688
0.747801
0.738025
0.796676
0.913978
1.143695
1.026393
0.962854
1.085044
0.899316
1.148583
1.099707
1.080156
1.187683
1.207234
1.334311
1.539589
1.495601
1.500489
1.329423
0.068426
0.004888
0.146628
0.097752
4.100684
0.469208
4.384164
3.665689
4.398827
2.825024
1.691105
1.221896
4.584555
4.545455
4.301075
4.765396
2.991202
0.747801
2.878788
2.629521
0.791789
2.189638
2.179863
2.155425
3.914956
0.200391
4.408602
0.625611
1.324536
0.874878
2.961877
2.253177
2.971652
2.893451
1.412512
2.189638
0.948192
4.081134
2.028348
1.016618
0.777126
0.752688
0.679374
0.620723
0.547410
0.415445
0.307918
0.161290
0.068426
0.053763
0.293255
0.102639
0.009775
0.009775
0.224829
0.518084
0.469208
0.210166
0.131965
0.136852
0.288368
0.131965
0.366569
0.571848
0.679374
0.791789
0.845552
0.889541
0.953079
1.001955
0.762463
1.021505
0.992180
1.080156
1.158358
1.168133
1.334311
1.432063
1.256109
1.256109
1.265885
0.962854
1.568915
1.436950
1.476051
1.353861
1.608016
1.603128
1.520039
1.471163
1.466276
1.476051
1.490714
1.065494
1.202346
0.215054
0.004888
0.019550
1.568915
3.260020
0.855327
2.693060
2.404692
4.814272
1.480938
4.594330
2.756598
3.660802
1.823069
4.574780
2.707722
2.727273
1.671554
3.836755
3.132942
2.600196
1.564027
1.124145
1.788856
1.480938
3.812317
2.233627
0.205279
2.517107
0.909091
1.945259
4.423265
1.598240
0.078201
0.518084
4.086022
3.142717
0.298143
2.228739
0.410557
3.054741
2.419355
1.798631
2.199413
1.265885
0.733138
0.650049
0.459433
0.811339
0.342131
0.107527
0.200391
0.009775
0.117302
0.004888
0.009775
0.200391
0.063539
0.229717
0.449658
0.405670
0.122190
0.112414
0.029326
0.097752
0.337243
0.283480
0.386119
0.391007
0.733138
0.713587
0.728250
0.738025
0.782014
0.909091
0.977517
1.050831
0.987292
1.202346
1.280547
1.226784
1.153470
1.300098
1.441838
1.412512
1.388074
1.124145
1.695992
1.417400
1.764418
1.671554
1.647116
1.568915
1.930596
1.705767
1.793744
1.656891
1.691105
1.666667
1.681329
1.500489
1.842620
1.837732
1.823069
1.754643
1.710655
0.307918
0.019550
0.000000
0.180841
2.233627
4.565005
1.304985
3.450635
4.164223
3.514174
3.382209
4.232649
4.017595
4.750733
3.098729
4.628543
1.827957
3.533724
3.088954
0.674487
3.636364
2.331378
0.405670
1.344086
3.875855
0.596285
2.605083
0.469208
3.553275
0.356794
3.030303
1.094819
0.513196
1.177908
3.870968
1.715543
2.639296
0.102639
2.570870
3.841642
3.416422
1.334311
1.085044
1.036168
0.464321
1.260997
0.869990
0.469208
0.356794
0.171065
0.039101
0.307918
0.078201
0.244379
0.014663
0.019550
0.024438
0.000000
0.000000
0.000000
0.000000
0.513196
0.449658
0.625611
0.615836
0.571848
0.537634
0.522972
0.645161
0.708700
0.503421
0.669599
0.713587
0.967742
1.192571
1.270772
1.388074
1.050831
1.510264
1.378299
1.524927
1.647116
1.744868
1.867058
1.920821
1.891496
1.818182
1.871945
1.940371
1.896383
1.764418
2.043011
2.086999
1.485826
0.493646
2.908113
1.368524
2.634409
0.449658
3.651026
1.221896
3.357771
3.782991
3.851417
3.294233
3.035191
4.046921
2.756598
4.481916
4.760508
1.955034
2.776149
4.227761
2.795699
2.179863
4.071359
4.007820
0.645161
1.691105
3.484848
1.979472
3.216031
1.720430
1.290323
1.994135
2.277615
0.434995
3.978495
3.611926
0.493646
0.039101
4.139785
2.077224
2.663734
0.542522
1.529814
1.598240
1.182796
0.928641
1.026393
0.777126
0.928641
0.664712
0.493646
0.430108
0.224829
0.317693
0.053763
0.459433
0.249267
0.376344
0.298143
0.337243
0.322581
0.694037
0.625611
0.997067
0.728250
0.566960
0.566960
0.703812
0.772239
0.772239
0.483871
1.231672
1.202346
1.124145
1.075269
1.133920
1.236559
1.412512
1.392962
1.466276
1.471163
1.446725
1.793744
1.715543
1.637341
1.612903
1.896383
1.808407
1.803519
1.827957
1.779081
1.974585
1.891496
1.994135
1.847507
1.847507
1.783969
1.715543
1.832845
2.023460
1.832845
0.669599
0.092864
0.298143
1.456500
2.883675
1.852395
4.056696
4.134897
2.082111
4.736070
0.415445
4.276637
3.216031
3.401760
3.621701
4.364614
3.406647
3.548387
2.272727
3.426197
1.886608
4.081134
1.739980
4.090909
1.955034
2.062561
0.904203
4.330401
0.620723
4.208211
1.950147
3.069404
0.449658
2.834800
3.049853
0.694037
2.976540
0.210166
2.346041
2.756598
1.901271
0.762463
0.039101
4.286413
2.101662
1.700880
1.309873
1.031281
0.718475
1.075269
0.806452
0.918866
0.708700
0.606061
0.513196
0.415445
0.801564
0.708700
0.454545
0.967742
0.591398
0.630499
0.664712
0.689150
0.498534
0.679374
0.650049
0.723363
0.855327
0.845552
0.757576
0.786901
0.884653
1.236559
1.309873
1.407625
1.363636
1.324536
1.617791
1.407625
1.554252
1.549365
1.612903
1.725318
1.906158
1.911046
1.994135
1.999022
1.955034
1.930596
1.881720
1.891496
1.945259
1.886608
2.028348
1.994135
1.598240
1.300098
1.363636
1.896383
2.341153
3.626588
2.297165
2.150538
0.254154
2.253177
3.357771
1.911046
3.724340
0.982405
4.594330
1.739980
4.799609
2.556207
0.938416
3.743891
4.017595
3.445748
3.900293
2.541544
4.017595
1.300098
3.577713
1.456500
2.839687
2.311828
3.685239
1.554252
0.884653
2.189638
2.233627
0.322581
1.524927
4.051808
2.605083
0.953079
1.510264
0.938416
1.290323
1.344086
1.168133
1.114370
0.610948
0.601173
0.518084
0.395894
0.317693
0.464321
0.166178
0.821114
0.786901
0.982405
1.124145
1.075269
0.840665
1.060606
0.801564
0.762463
0.801564
0.918866
0.909091
0.747801
1.226784
1.065494
1.060606
0.874878
1.192571
1.304985
1.251222
1.270772
1.329423
1.392962
1.373412
1.353861
1.417400
1.422287
1.945259
1.783969
1.842620
1.827957
1.749756
1.705767
1.827957
1.705767
1.896383
1.857283
1.847507
1.945259
1.920821
2.052786
2.155425
1.989247
1.871945
1.187683
0.547410
0.190616
2.390029
4.188661
2.507331
0.215054
3.299120
3.235582
3.641251
2.663734
1.588465
1.935484
4.574780
2.106549
4.530792
4.403715
3.382209
2.717498
3.118280
2.991202
2.976540
3.919844
1.837732
2.869013
1.632454
0.728250
3.323558
1.260997
3.900293
0.581623
3.836755
1.573803
0.772239
1.285435
4.159335
2.321603
1.138807
0.293255
4.608993
1.974585
1.348974
1.231672
0.992180
0.918866
0.503421
0.430108
0.337243
0.278592
0.420332
0.332356
0.679374
0.654936
0.371457
0.547410
0.488759
0.400782
0.376344
0.171065
0.200391
0.713587
0.596285
0.527859
0.615836
0.630499
0.811339
0.713587
0.855327
0.889541
1.114370
1.207234
1.168133
1.280547
1.265885
0.928641
1.568915
1.500489
1.476051
1.534702
1.656891
1.764418
1.837732
1.783969
1.754643
2.067449
1.950147
1.930596
1.964809
1.989247
2.003910
1.999022
2.189638
2.116325
2.062561
2.018573
1.578690
0.488759
2.121212
2.878788
4.892473
3.900293
2.536657
0.298143
0.596285
1.119257
0.821114
4.618768
3.025415
0.322581
4.345064
2.174976
0.654936
4.784946
0.738025
4.677419
1.920821
3.123167
2.800587
3.499511
2.478006
0.899316
2.981427
4.359726
3.455523
1.060606
0.420332
1.539589
2.086999
4.320626
1.608016
2.179863
0.146628
4.345064
0.615836
3.318671
0.874878
1.085044
3.440860
1.808407
2.404692
1.730205
3.558162
0.948192
1.837732
2.688172
0.586510
1.446725
0.874878
0.772239
0.684262
0.483871
0.777126
0.586510
0.493646
0.493646
0.474096
0.537634
0.532747
0.532747
0.527859
0.566960
0.606061
0.698925
0.762463
0.869990
0.987292
1.055718
0.953079
0.909091
0.938416
0.830890
0.953079
0.992180
1.031281
1.060606
1.207234
1.329423
1.466276
1.559140
1.544477
1.539589
1.710655
1.803519
1.837732
1.862170
1.876833
1.862170
1.896383
1.920821
1.886608
1.920821
1.705767
0.855327
1.129032
1.417400
3.465298
1.055718
0.337243
2.981427
2.473118
0.464321
4.315738
2.429130
4.696970
4.550342
2.869013
3.284457
3.861193
4.384164
2.825024
3.382209
2.492669
3.856305
3.304008
2.981427
2.179863
1.309873
1.554252
1.813294
3.880743
4.618768
1.236559
0.879765
1.446725
0.997067
3.611926
1.554252
1.094819
1.588465
0.244379
3.787879
1.559140
1.163245
2.365591
0.601173
0.596285
3.968719
1.955034
1.813294
1.608016
1.182796
1.085044
1.119257
0.674487
1.163245
1.999022
1.876833
1.896383
1.876833
1.876833
1.710655
2.179863
1.857283
1.847507
1.891496
1.911046
1.823069
1.779081
1.735093
1.813294
1.774194
1.959922
1.813294
1.813294
1.759531
1.774194
1.774194
1.876833
1.774194
1.617791
1.764418
1.749756
1.813294
1.476051
1.862170
1.749756
1.857283
1.715543
1.867058
1.730205
1.070381
1.402737
3.826979
1.397849
1.979472
2.844575
0.933529
0.386119
1.217009
1.334311
1.221896
0.210166
3.328446
0.938416
3.069404
1.251222
0.987292
2.619746
0.444770
0.615836
2.590420
3.352884
2.008798
4.173998
0.791789
1.808407
3.479961
0.513196
0.307918
0.175953
2.179863
4.589443
0.742913
1.085044
2.062561
1.085044
4.486804
1.241447
3.626588
1.319648
1.994135
1.598240
3.949169
4.051808
1.094819
3.651026
2.541544
2.790811
2.233627
0.782014
3.958944
2.815249
2.267840
2.463343
2.952102
1.549365
0.992180
0.361681
0.400782
0.131965
0.307918
0.948192
0.874878
1.495601
1.456500
1.686217
1.730205
1.871945
1.959922
2.062561
2.556207
2.463343
2.434018
2.375367
2.218964
2.218964
1.920821
2.321603
2.336266
2.267840
2.052786
2.517107
2.741935
1.016618
0.376344
2.155425
3.338221
4.672532
1.041056
4.242424
4.408602
4.154448
1.930596
2.629521
0.855327
0.742913
0.767351
0.430108
1.217009
1.950147
1.637341
3.636364
2.585533
0.913978
0.513196
3.338221
0.855327
1.270772
1.397849
1.001955
0.987292
0.889541
1.177908
1.177908
1.212121
1.608016
1.612903
1.886608
1.974585
2.086999
2.233627
2.297165
2.189638
2.194526
2.262952
2.238514
2.199413
2.086999
2.047898
2.062561
2.096774
2.062561
1.984360
1.989247
1.945259
1.930596
1.950147
1.652004
2.551320
1.544477
2.380254
0.669599
4.682307
2.453568
0.635386
4.643206
2.595308
0.694037
1.827957
4.056696
3.450635
0.669599
1.065494
0.259042
4.237537
0.478983
0.034213
4.335288
1.373412
0.669599
3.602151
2.942326
0.654936
2.937439
3.396872
2.277615
0.913978
0.278592
0.547410
3.851417
1.163245
1.129032
4.662757
0.166178
2.443793
0.918866
0.913978
1.964809
0.610948
2.502444
1.197458
1.881720
1.534702
1.309873
1.480938
0.962854
1.549365
1.461388
1.500489
1.832845
1.886608
2.189638
2.047898
1.979472
1.798631
2.541544
2.297165
1.969697
2.575758
2.355816
2.341153
2.072336
2.590420
4.980450
5.000000
5.000000
5.000000
5.000000
5.000000
5.000000
5.000000
1.373412
0.000000
0.000000
0.000000
0.000000
2.179863
0.000000
0.224829
4.296188
5.000000
0.009775
4.501466
0.004888
0.000000
4.980450
4.975562
2.399804
2.653959
3.269795
4.775171
0.796676
0.004888
0.000000
1.984360
2.003910
1.911046
1.979472
1.999022
1.940371
1.930596
1.930596
1.832845
1.842620
1.964809
1.881720
1.862170
1.813294
1.793744
1.832845
1.783969
1.803519
1.852395
1.730205
1.759531
1.676442
1.622678
1.681329
1.652004
1.695992
1.642229
1.608016
1.715543
1.588465
1.510264
1.637341
1.612903
1.573803
1.573803
1.480938
1.402737
1.578690
1.554252
1.397849
1.490714
1.480938
1.441838
1.476051
1.466276
1.495601
1.392962
1.417400
1.432063
1.407625
1.446725
1.363636
1.417400
1.373412
1.348974
1.432063
1.358749
1.402737
1.285435
1.363636
1.348974
1.295210
1.334311
1.329423
1.397849
1.339198
1.251222
1.285435
1.329423
1.265885
1.363636
1.339198
1.290323
1.221896
1.275660
1.226784
1.129032
1.295210
1.348974
1.260997
1.217009
1.256109
1.221896
0.957967
1.402737
1.260997
1.251222
1.314761
1.275660
1.280547
1.177908
1.163245
1.383187
1.236559
1.226784
1.324536
1.246334
1.182796
0.972630
1.270772
1.182796
1.231672
1.226784
1.221896
1.173021
1.036168
1.275660
1.212121
1.045943
1.226784
1.182796
1.119257
1.182796
1.236559
1.173021
1.212121
1.304985
1.085044
1.285435
1.212121
1.158358
1.153470
1.148583
1.158358
1.212121
1.158358
1.221896
1.089932
1.207234
1.173021
1.173021
1.089932
1.177908
1.109482
1.217009
1.265885
1.236559
1.168133
1.119257
1.319648
1.217009
1.129032
1.129032
1.251222
1.217009
1.089932
1.202346
1.260997
1.138807
1.290323
1.197458
1.119257
1.133920
1.041056
1.290323
1.138807
1.236559
1.212121
1.173021
1.202346
1.388074
1.217009
1.226784
1.114370
1.197458
1.094819
1.412512
1.231672
1.260997
1.187683
1.231672
1.182796
1.109482
0.058651
0.073314
0.000000
2.077224
0.166178
0.752688
0.860215
3.079179
0.122190
2.996090
0.562072
4.550342
4.320626
0.444770
0.034213
4.530792
2.336266
4.794721
1.793744
4.002933
0.195503
2.077224
2.556207
1.436950
1.300098
3.220919
1.769306
0.190616
2.204301
2.409580
2.302053
0.410557
1.041056
1.891496
1.045943
1.989247
1.485826
1.500489
1.520039
1.192571
0.254154
0.058651
0.518084
1.969697
1.813294
0.366569
0.620723
1.300098
2.473118
0.298143
2.424242
1.422287
1.304985
1.124145
0.068426
2.707722
0.977517
0.591398
0.503421
0.444770
0.322581
0.562072
0.620723
0.635386
0.488759
0.493646
0.542522
0.581623
0.586510
0.581623
0.576735
0.420332
0.742913
0.738025
0.606061
0.459433
0.434995
0.376344
0.317693
0.571848
0.664712
0.508309
0.679374
0.698925
0.640274
0.625611
0.850440
0.835777
0.806452
0.791789
0.821114
0.826002
0.835777
0.723363
1.055718
1.006843
0.997067
1.060606
1.226784
1.304985
1.358749
1.304985
1.466276
1.402737
1.510264
1.520039
1.544477
1.554252
1.549365
1.632454
1.647116
1.661779
1.783969
1.710655
1.691105
1.598240
1.632454
1.656891
1.627566
1.627566
1.534702
1.788856
1.730205
1.695992
1.700880
1.534702
1.700880
1.676442
1.637341
1.739980
1.700880
1.622678
1.774194
1.720430
1.715543
1.710655
1.695992
1.686217
1.652004
1.676442
1.627566
1.798631
1.730205
1.700880
1.686217
1.676442
1.652004
1.661779
1.652004
1.652004
1.564027
1.710655
1.637341
1.739980
0.127077
0.004888
0.000000
0.000000
2.658847
4.848485
2.966764
4.662757
2.297165
2.785924
4.100684
1.803519
4.574780
3.132942
2.521994
4.389052
4.154448
3.484848
0.913978
0.166178
3.299120
1.124145
3.929619
1.495601
2.008798
0.645161
2.126100
2.678397
2.086999
3.479961
1.290323
1.974585
0.430108
1.710655
3.387097
0.738025
3.978495
0.459433
2.204301
1.681329
0.474096
2.854350
0.488759
0.317693
2.468231
0.317693
0.640274
1.896383
2.737048
1.783969
0.738025
3.626588
1.119257
2.130987
2.492669
0.606061
1.969697
0.478983
2.116325
0.405670
2.170088
3.260020
1.788856
0.596285
2.326491
0.166178
0.263930
0.957967
4.623656
0.654936
0.532747
1.510264
0.268817
1.500489
2.302053
4.403715
0.933529
2.106549
0.361681
0.420332
0.092864
1.427175
2.961877
1.422287
1.945259
1.085044
0.635386
0.591398
0.708700
0.718475
0.571848
0.434995
0.332356
0.229717
0.146628
0.078201
0.029326
0.000000
0.000000
0.000000
0.000000
0.000000
0.000000
0.097752
0.068426
0.410557
0.386119
0.503421
0.552297
0.630499
0.650049
0.752688
0.664712
1.129032
1.124145
1.124145
1.236559
1.348974
1.456500
1.476051
1.583578
1.495601
1.749756
1.656891
1.823069
1.881720
1.881720
1.920821
1.989247
1.857283
2.082111
2.155425
1.964809
2.262952
2.101662
1.959922
2.091887
1.999022
1.959922
1.964809
1.950147
1.876833
2.047898
2.033236
2.008798
1.984360
2.057674
2.043011
1.984360
2.047898
1.930596
2.062561
1.994135
1.979472
1.945259
2.008798
1.994135
1.959922
1.959922
1.955034
1.974585
1.930596
1.925709
1.940371
1.955034
1.915934
1.979472
1.969697
1.940371
1.940371
1.695992
1.432063
2.091887
1.290323
2.854350
0.581623
2.448680
0.869990
2.873900
0.757576
3.308895
2.013685
0.801564
4.477028
4.931574
0.923754
4.623656
3.025415
4.887586
1.735093
3.582600
4.076246
2.956989
1.202346
2.761486
1.089932
2.086999
4.257087
1.094819
2.375367
1.764418
0.337243
3.680352
1.935484
0.097752
2.321603
0.679374
2.526882
1.627566
1.779081
0.596285
1.994135
2.365591
0.171065
2.311828
1.847507
0.278592
2.091887
3.958944
0.610948
3.211144
1.300098
0.821114
4.042033
1.749756
0.874878
2.468231
1.177908
2.419355
1.275660
3.724340
0.483871
1.705767
1.964809
1.217009
2.751711
0.615836
0.195503
1.505376
2.771261
0.347019
1.695992
0.312805
0.806452
4.408602
1.241447
1.637341
2.771261
0.650049
0.053763
0.674487
4.335288
0.606061
3.475073
0.317693
0.229717
0.019550
3.137830
1.309873
4.633431
2.165200
0.073314
2.883675
2.272727
3.787879
1.788856
1.217009
0.953079
0.943304
0.747801
0.498534
0.219941
0.053763
0.000000
0.000000
0.000000
0.000000
0.000000
0.000000
0.024438
0.083089
0.146628
0.092864
0.043988
0.063539
0.185728
0.239492
0.351906
0.527859
0.483871
0.684262
0.738025
1.124145
1.339198
1.319648
1.358749
1.392962
1.383187
1.436950
1.422287
1.647116
1.813294
1.867058
1.881720
1.940371
1.901271
2.179863
2.091887
2.023460
2.145650
2.179863
2.101662
2.121212
2.052786
2.023460
2.043011
2.082111
2.111437
2.126100
2.292278
2.238514
2.223851
2.194526
2.165200
2.174976
2.165200
2.126100
2.135875
2.145650
2.145650
2.106549
2.214076
2.214076
2.199413
2.165200
2.174976
2.150538
2.160313
2.170088
2.160313
2.130987
2.111437
2.052786
2.091887
2.111437
2.096774
2.126100
2.130987
2.126100
2.077224
2.077224
2.013685
2.018573
2.013685
2.003910
2.023460
1.999022
1.989247
1.955034
1.451613
0.205279
1.290323
0.488759
1.236559
0.043988
4.657869
3.352884
4.198436
4.467253
3.137830
4.892473
3.465298
4.320626
2.228739
0.591398
3.167155
2.209189
1.793744
0.777126
0.777126
3.318671
1.290323
1.788856
1.353861
0.425220
3.059629
0.483871
0.034213
4.271750
3.010753
1.930596
0.166178
0.200391
4.604106
1.378299
0.483871
2.043011
4.115347
1.705767
1.368524
0.444770
0.645161
3.049853
2.526882
2.937439
0.391007
0.151515
3.054741
0.957967
1.050831
2.267840
1.260997
0.806452
0.967742
2.277615
3.211144
0.610948
1.207234
0.967742
3.489736
2.546432
3.054741
0.283480
3.602151
3.123167
0.307918
3.543500
2.228739
3.665689
0.474096
1.588465
1.559140
1.163245
2.741935
2.741935
1.930596
2.448680
0.283480
2.478006
2.732160
1.774194
0.865103
1.862170
0.068426
1.094819
0.557185
3.631476
0.747801
3.406647
0.899316
1.940371
3.993157
0.801564
2.306940
2.145650
0.171065
1.094819
3.919844
0.527859
1.915934
0.654936
2.145650
1.466276
0.811339
0.869990
0.791789
0.816227
0.718475
0.728250
0.679374
0.982405
0.728250
0.586510
0.503421
0.488759
0.351906
0.591398
0.547410
0.532747
0.171065
0.566960
0.488759
0.762463
0.645161
0.576735
0.762463
0.811339
0.948192
0.948192
1.021505
1.221896
1.212121
1.265885
1.402737
1.471163
1.622678
1.632454
1.735093
1.793744
1.715543
1.710655
1.759531
1.769306
1.871945
1.940371
1.945259
1.950147
2.184751
2.130987
2.082111
2.003910
2.287390
2.218964
2.072336
2.057674
1.911046
2.160313
2.233627
2.155425
1.979472
2.497556
2.370479
2.189638
2.111437
2.086999
2.057674
2.043011
2.023460
2.302053
2.243402
2.111437
2.057674
2.028348
2.033236
1.964809
1.955034
1.969697
1.969697
2.130987
2.062561
2.043011
2.003910
1.964809
1.930596
1.999022
1.896383
2.057674
1.979472
1.935484
2.018573
1.955034
1.871945
1.969697
1.886608
1.886608
1.911046
1.896383
1.896383
1.964809
1.955034
1.906158
1.867058
1.886608
1.915934
1.925709
1.915934
1.842620
1.485826
0.332356
0.263930
1.197458
1.827957
2.756598
2.746823
3.352884
2.086999
2.922776
4.208211
4.907136
0.742913
3.035191
4.916911
4.090909
1.089932
2.580645
0.356794
4.604106
1.964809
2.121212
2.262952
0.366569
1.891496
0.869990
2.649071
2.878788
2.199413
0.821114
2.033236
1.285435
1.197458
0.957967
1.783969
3.196481
2.478006
0.107527
3.998045
0.351906
2.458456
1.920821
0.733138
0.376344
0.029326
4.144673
0.777126
0.879765
2.473118
1.221896
1.598240
0.210166
3.655914
0.796676
4.305963
0.542522
0.723363
0.796676
4.042033
1.446725
0.708700
0.146628
1.451613
1.280547
3.264907
1.886608
0.909091
0.278592
0.552297
2.546432
1.304985
1.989247
2.790811
0.684262
0.386119
0.508309
3.626588
3.069404
1.544477
0.205279
2.864125
2.575758
3.826979
0.889541
2.829912
2.130987
2.976540
0.513196
4.066471
1.363636
0.097752
3.035191
3.968719
4.281525
0.894428
2.561095
2.619746
1.451613
1.251222
1.055718
0.982405
0.904203
0.796676
0.591398
0.351906
1.935484
1.896383
1.901271
1.930596
1.886608
1.911046
1.906158
1.891496
1.881720
1.862170
1.852395
1.847507
1.852395
1.827957
1.808407
1.783969
1.793744
1.774194
1.774194
1.764418
1.749756
1.749756
1.739980
1.725318
1.720430
1.739980
1.720430
1.720430
1.715543
1.681329
1.700880
1.695992
0.107527
1.642229
1.417400
4.325513
3.704790
1.695992
4.208211
3.069404
1.236559
1.554252
0.127077
1.554252
3.426197
0.899316
0.342131
2.150538
4.012708
1.915934
0.547410
2.678397
0.772239
1.402737
0.161290
1.260997
3.113392
1.754643
3.054741
0.322581
1.852395
3.387097
2.350929
1.700880
2.038123
0.337243
3.196481
3.113392
1.329423
2.551320
2.790811
2.883675
1.842620
1.334311
1.212121
1.124145
0.928641
0.801564
0.679374
0.967742
1.324536
1.783969
1.974585
2.077224
1.984360
2.033236
2.072336
2.072336
2.018573
2.077224
2.023460
2.023460
1.984360
1.945259
1.911046
1.920821
1.891496
1.876833
1.827957
1.857283
1.823069
1.837732
1.803519
1.774194
1.769306
1.783969
1.788856
1.754643
1.735093
1.720430
1.686217
1.725318
1.700880
1.686217
1.681329
1.720430
1.676442
1.661779
1.686217
1.686217
1.686217
1.671554
1.652004
0.136852
0.606061
3.900293
4.452590
2.126100
4.173998
3.743891
2.903226
2.453568
0.786901
0.869990
1.133920
0.972630
3.406647
1.094819
3.220919
0.938416
2.370479
3.489736
1.818182
3.240469
4.408602
0.537634
1.153470
0.816227
1.505376
1.153470
3.264907
3.088954
1.358749
4.139785
1.217009
2.135875
0.884653
1.891496
0.376344
3.074291
2.209189
3.093842
4.501466
3.015640
3.147605
2.815249
2.678397
2.155425
2.243402
0.366569
3.587488
1.060606
1.290323
1.251222
2.497556
0.219941
2.678397
2.609971
1.304985
1.476051
0.478983
4.379277
4.393939
4.051808
0.078201
0.312805
1.495601
3.993157
1.177908
0.923754
0.537634
0.156403
0.307918
0.718475
0.918866
0.899316
1.373412
1.647116
1.793744
1.994135
2.204301
2.101662
1.940371
2.028348
2.067449
2.013685
1.959922
2.043011
1.930596
1.974585
2.043011
1.950147
1.896383
1.896383
1.827957
1.832845
0.034213
1.432063
1.085044
2.825024
3.137830
1.070381
0.703812
1.348974
1.955034
2.732160
2.047898
0.821114
1.559140
1.730205
2.473118
1.862170
0.249267
2.722385
1.392962
2.688172
0.195503
3.929619
2.311828
0.860215
0.845552
0.694037
0.757576
0.562072
0.508309
0.772239
0.840665
1.060606
1.524927
1.769306
1.779081
1.989247
1.818182
1.925709
2.013685
1.994135
1.827957
1.886608
2.082111
1.911046
1.559140
1.652004
2.502444
2.932551
4.027370
2.497556
0.581623
3.220919
1.329423
1.554252
0.576735
0.698925
3.875855
3.914956
3.763441
3.988270
2.639296
2.047898
0.938416
2.580645
1.065494
0.997067
1.114370
0.923754
0.650049
0.762463
1.085044
1.236559
1.588465
1.735093
1.862170
1.871945
1.862170
1.945259
2.082111
1.945259
1.867058
1.881720
1.959922
1.955034
1.832845
1.915934
1.964809
1.955034
1.862170
1.823069
1.994135
1.617791
0.386119
1.265885
2.365591
2.106549
1.422287
1.739980
2.727273
0.899316
0.498534
0.259042
2.072336
1.080156
0.029326
2.561095
1.344086
2.272727
0.034213
0.948192
4.237537
0.606061
1.705767
0.738025
3.396872
3.695015
2.003910
1.270772
1.314761
1.427175
1.241447
1.036168
0.782014
1.119257
1.446725
1.603128
1.735093
1.510264
1.505376
1.656891
1.871945
1.911046
1.891496
1.891496
1.945259
1.911046
1.881720
1.920821
1.920821
1.842620
1.441838
2.062561
4.496579
2.492669
2.751711
3.484848
3.958944
2.331378
1.656891
1.036168
0.747801
0.821114
0.723363
0.855327
1.109482
1.182796
1.700880
1.818182
1.920821
1.578690
2.038123
2.287390
2.487781
5.000000
5.000000
5.000000
4.995112
4.995112
5.000000
5.000000
5.000000
5.000000
5.000000
5.000000
4.496579
4.990225
4.990225
0.009775
0.000000
0.000000
0.000000
0.000000
0.000000
0.000000
0.000000
0.000000
0.000000
0.000000
0.000000
0.000000
0.967742
0.000000
0.000000
0.000000
0.000000
0.000000
0.293255
1.436950
3.714565
3.695015
0.053763
0.000000
0.000000
0.650049
4.809384
0.723363
2.385142
2.888563
3.079179
2.849462
0.014663
4.995112
2.277615
0.019550
1.168133
0.224829
1.578690
1.622678
3.103617
4.863148
4.286413
3.910068
3.602151
4.315738
4.965787
1.500489
4.995112
4.916911
4.941349
4.325513
4.853372
3.191593
3.172043
4.628543
4.995112
4.838710
4.828935
2.531769
3.812317
4.442815
3.875855
3.763441
2.844575
2.595308
2.922776
2.756598
4.916911
3.807429
4.990225
2.707722
2.761486
2.316716
3.128055
4.995112
4.916911
4.652981
2.883675
4.169110
2.028348
4.506354
4.995112
4.946237
0.034213
0.000000
0.000000
2.781036
2.165200
1.901271
0.728250
2.609971
4.995112
2.609971
4.868035
4.555230
4.853372
4.960899
0.733138
0.718475
1.671554
1.099707
1.036168
1.109482
0.752688
2.003910
1.803519
1.871945
0.694037
1.529814
1.642229
0.522972
1.686217
0.684262
2.390029
1.314761
1.329423
1.085044
1.158358
1.197458
1.138807
1.813294
0.855327
1.060606
1.353861
0.635386
1.045943
1.231672
1.060606
1.011730
1.436950
1.862170
1.681329
0.855327
0.845552
1.099707
0.591398
0.185728
1.642229
1.974585
1.392962
1.129032
0.640274
1.344086
1.187683
1.285435
1.275660
0.830890
1.476051
1.207234
1.671554
1.559140
1.138807
2.077224
0.684262
0.972630
0.488759
1.500489
1.950147
1.236559
1.793744
1.050831
1.798631
2.507331
0.200391
1.050831
2.443793
0.835777
2.717498
1.559140
0.645161
1.217009
0.083089
0.000000
0.000000
2.321603
3.597263
1.637341
1.529814
1.197458
1.070381
0.997067
0.112414
0.469208
1.456500
2.101662
0.092864
3.587488
1.867058
1.637341
1.207234
1.099707
1.045943
1.070381
1.041056
1.041056
0.977517
0.806452
1.192571
1.133920
1.094819
1.041056
1.099707
1.104594
1.065494
1.031281
1.011730
1.041056
0.948192
1.055718
1.094819
1.011730
0.992180
0.918866
0.894428
0.894428
0.923754
0.987292
1.031281
1.099707
1.158358
1.226784
1.168133
1.300098
1.260997
1.231672
1.217009
1.226784
1.226784
1.231672
1.236559
1.280547
1.270772
1.265885
1.344086
1.314761
1.344086
1.348974
1.368524
1.373412
1.358749
1.348974
1.388074
1.358749
1.383187
1.388074
1.319648
1.417400
1.392962
1.412512
1.388074
1.407625
1.432063
1.353861
1.500489
1.490714
1.471163
1.476051
1.490714
1.441838
1.480938
1.510264
1.397849
1.549365
1.412512
1.622678
1.652004
1.554252
1.500489
1.593353
1.446725
1.647116
1.568915
1.559140
1.534702
1.627566
1.564027
1.612903
1.588465
1.554252
1.539589
1.637341
1.236559
1.989247
0.928641
1.979472
1.915934
0.982405
2.033236
1.862170
0.703812
1.598240
2.194526
1.500489
3.968719
3.162268
2.512219
2.248289
2.204301
1.021505
0.674487
1.666667
0.332356
1.891496
2.507331
1.368524
2.756598
2.404692
0.909091
2.253177
0.728250
1.876833
1.671554
3.044966
2.590420
1.715543
0.547410
1.666667
1.979472
2.580645
0.718475
0.249267
1.461388
2.859238
1.011730
0.312805
2.453568
0.992180
2.184751
0.982405
1.417400
0.630499
1.608016
1.080156
2.663734
1.138807
1.285435
1.823069
0.674487
2.062561
1.666667
1.999022
1.138807
1.363636
2.018573
0.254154
1.593353
2.864125
1.534702
0.195503
1.989247
1.050831
2.189638
1.436950
0.698925
0.215054
2.399804
2.096774
1.099707
1.735093
2.355816
0.488759
1.505376
1.436950
1.544477
1.353861
1.339198
0.332356
1.373412
1.133920
2.575758
0.992180
0.366569
1.622678
0.239492
1.725318
1.827957
0.376344
1.823069
1.544477
1.417400
0.997067
1.891496
1.246334
1.143695
0.327468
3.064516
1.246334
0.913978
2.346041
0.894428
1.192571
2.306940
1.260997
0.107527
1.114370
0.522972
1.823069
1.226784
1.500489
1.256109
1.045943
1.011730
0.884653
0.840665
0.728250
0.938416
1.031281
1.055718
1.075269
1.075269
1.045943
0.884653
0.879765
0.977517
0.992180
0.997067
1.026393
0.982405
0.987292
1.001955
0.992180
0.972630
0.943304
0.992180
1.045943
1.080156
1.138807
1.158358
1.192571
1.236559
1.280547
1.309873
1.344086
1.363636
1.407625
1.436950
1.461388
1.436950
1.446725
1.461388
1.451613
1.466276
1.480938
1.510264
1.544477
1.529814
1.549365
1.559140
1.578690
1.573803
1.603128
1.671554
1.705767
1.735093
1.764418
1.759531
1.730205
1.700880
1.666667
1.637341
1.656891
1.656891
1.656891
1.676442
1.739980
1.739980
1.691105
1.691105
1.783969
1.779081
1.749756
1.715543
1.700880
1.705767
1.652004
1.730205
1.759531
1.617791
1.759531
1.793744
1.793744
1.759531
1.862170
1.788856
1.783969
1.818182
1.759531
1.803519
1.813294
1.691105
1.832845
2.003910
1.803519
1.876833
1.803519
1.827957
1.637341
2.126100
1.588465
1.783969
1.168133
1.031281
0.537634
3.958944
2.214076
3.264907
3.543500
2.375367
3.025415
1.011730
2.478006
1.832845
2.834800
3.704790
0.806452
2.214076
0.674487
3.773216
1.886608
0.654936
3.519062
0.391007
1.837732
1.598240
1.783969
1.436950
1.955034
1.104594
1.432063
2.072336
1.270772
1.598240
0.703812
2.932551
1.564027
0.547410
2.302053
1.339198
2.869013
0.694037
3.000978
1.021505
1.231672
4.017595
2.487781
0.244379
2.018573
2.282502
1.388074
1.617791
0.317693
1.251222
2.468231
2.272727
1.637341
0.503421
2.101662
0.664712
0.684262
2.140762
1.984360
2.321603
0.933529
1.348974
0.620723
3.406647
0.972630
1.871945
0.830890
1.774194
1.173021
0.327468
1.950147
1.358749
2.267840
1.334311
1.823069
1.270772
0.425220
3.450635
1.202346
0.811339
0.957967
1.798631
2.790811
1.911046
0.518084
0.391007
2.184751
3.563050
2.673509
0.840665
0.185728
3.724340
2.570870
1.656891
1.735093
1.456500
1.319648
1.094819
1.001955
0.982405
0.826002
0.816227
0.884653
0.889541
0.909091
0.972630
1.006843
0.987292
0.953079
0.904203
0.869990
0.508309
1.060606
1.089932
1.036168
1.280547
1.212121
1.153470
1.124145
1.129032
1.094819
1.109482
1.055718
1.016618
0.967742
1.001955
1.109482
1.319648
1.466276
1.549365
1.549365
1.520039
1.451613
1.378299
1.388074
1.334311
1.339198
1.285435
1.265885
1.290323
1.319648
1.309873
1.412512
1.476051
1.568915
1.608016
1.647116
1.730205
1.783969
1.779081
1.759531
1.793744
1.730205
1.656891
1.695992
1.661779
1.627566
1.612903
1.656891
1.686217
1.749756
1.744868
1.759531
1.808407
1.793744
1.891496
1.930596
1.915934
1.906158
1.876833
1.876833
1.832845
1.779081
1.808407
1.744868
1.735093
1.759531
1.793744
1.808407
1.749756
1.749756
1.891496
1.818182
1.852395
1.867058
1.847507
1.832845
1.681329
1.779081
1.974585
1.950147
1.837732
1.857283
1.608016
1.177908
2.228739
1.173021
2.052786
1.495601
1.808407
0.718475
3.328446
0.718475
2.849462
4.076246
3.660802
2.233627
3.294233
2.722385
1.314761
1.285435
2.825024
2.287390
1.251222
0.083089
3.822092
0.904203
2.981427
2.209189
0.268817
2.316716
1.368524
2.590420
2.453568
1.236559
0.713587
2.864125
3.162268
2.321603
0.420332
3.030303
0.747801
4.061584
2.311828
2.033236
0.576735
0.156403
2.306940
2.292278
2.815249
1.001955
2.331378
2.228739
0.742913
1.177908
1.950147
2.438905
2.135875
0.293255
2.966764
1.031281
1.236559
1.192571
2.047898
2.292278
2.209189
1.583578
0.058651
3.851417
0.557185
3.572825
1.324536
1.236559
1.290323
2.722385
0.606061
0.918866
2.214076
0.503421
0.210166
3.318671
1.715543
0.381232
0.454545
0.826002
2.018573
1.735093
1.466276
2.859238
0.381232
3.289345
0.171065
4.042033
1.373412
3.592375
0.650049
0.347019
0.865103
2.737048
1.265885
3.861193
1.319648
1.818182
0.078201
0.493646
3.250244
1.994135
0.180841
3.998045
2.135875
1.392962
1.138807
1.094819
1.221896
1.021505
1.006843
0.816227
0.131965
1.344086
2.101662
1.085044
0.899316
0.708700
0.679374
0.855327
0.840665
0.840665
0.865103
0.962854
0.967742
1.016618
1.089932
1.099707
1.138807
1.129032
1.133920
1.158358
1.153470
1.182796
1.221896
1.231672
1.285435
1.241447
1.314761
1.231672
1.143695
1.168133
1.192571
1.256109
1.260997
1.304985
1.260997
1.319648
1.334311
1.339198
1.412512
1.520039
1.529814
1.608016
1.564027
1.603128
1.588465
1.573803
1.617791
1.588465
1.568915
1.622678
1.676442
1.681329
1.754643
1.788856
1.813294
1.827957
1.827957
1.847507
1.813294
1.827957
1.788856
1.788856
1.749756
1.739980
1.774194
1.862170
1.832845
1.803519
1.827957
1.911046
1.842620
1.940371
1.896383
1.793744
1.940371
1.896383
1.798631
1.871945
1.862170
1.808407
1.798631
1.798631
1.852395
1.808407
1.759531
1.813294
1.823069
1.857283
1.730205
1.559140
1.241447
1.583578
2.380254
1.700880
1.319648
2.111437
1.994135
2.404692
2.605083
2.898338
0.478983
4.203324
2.214076
2.737048
2.194526
1.862170
3.631476
3.470186
0.581623
2.702835
1.021505
2.126100
2.399804
1.642229
1.129032
0.909091
0.747801
2.815249
1.476051
0.972630
1.265885
0.459433
2.707722
2.028348
1.764418
1.500489
0.884653
2.639296
0.464321
3.739003
1.524927
0.884653
0.801564
2.644184
1.427175
2.561095
0.410557
3.176931
1.500489
1.011730
2.526882
0.938416
2.443793
0.928641
1.974585
0.708700
3.460411
0.371457
1.256109
1.476051
0.943304
2.282502
3.279570
0.562072
0.884653
1.695992
2.482893
1.378299
0.420332
2.839687
2.316716
1.417400
2.258065
2.961877
1.436950
0.298143
1.133920
2.463343
1.974585
2.380254
0.640274
1.021505
0.562072
2.937439
1.686217
1.314761
2.580645
1.129032
1.974585
2.047898
0.474096
1.886608
2.859238
0.913978
3.142717
1.168133
3.831867
1.226784
0.752688
3.895406
2.507331
1.720430
1.935484
0.738025
0.078201
2.746823
2.702835
1.520039
0.918866
0.987292
0.982405
1.026393
0.957967
0.977517
1.001955
1.031281
1.060606
1.094819
1.129032
1.099707
1.094819
1.065494
1.094819
1.104594
1.226784
1.256109
1.285435
1.256109
1.236559
1.221896
1.187683
1.173021
1.109482
1.075269
1.045943
1.011730
1.026393
1.065494
1.045943
1.060606
1.109482
1.212121
1.265885
1.319648
1.344086
1.392962
1.446725
1.495601
1.510264
1.524927
1.588465
1.564027
1.578690
1.612903
1.578690
1.564027
1.627566
1.617791
1.603128
1.656891
1.691105
1.720430
1.754643
1.842620
1.832845
1.818182
1.842620
1.803519
1.759531
1.754643
1.749756
1.720430
1.764418
1.754643
1.754643
1.813294
1.842620
1.852395
1.852395
1.891496
1.911046
1.906158
1.871945
1.901271
1.871945
1.857283
1.842620
1.798631
1.803519
1.764418
1.783969
1.788856
1.754643
1.842620
1.837732
1.847507
1.803519
3.968719
0.816227
3.196481
0.332356
2.287390
1.999022
1.842620
2.350929
3.103617
1.544477
0.288368
1.617791
0.171065
0.078201
1.461388
2.443793
2.463343
2.702835
0.933529
2.302053
0.395894
2.478006
1.735093
2.214076
1.749756
1.837732
3.088954
0.899316
2.781036
2.390029
1.388074
1.524927
1.559140
1.378299
1.397849
1.378299
1.373412
1.348974
1.358749
1.427175
1.534702
1.559140
1.524927
1.520039
1.647116
1.739980
1.715543
1.695992
1.764418
1.769306
1.769306
1.774194
1.769306
1.779081
1.749756
1.715543
1.754643
1.720430
1.715543
1.739980
1.725318
1.735093
1.705767
1.686217
1.695992
1.715543
1.686217
1.686217
1.652004
1.642229
1.652004
1.656891
1.510264
1.392962
2.018573
1.529814
1.813294
1.911046
1.647116
0.659824
3.851417
1.148583
0.874878
1.304985
1.485826
3.416422
4.012708
1.109482
2.688172
2.297165
3.186706
0.801564
2.746823
0.845552
0.591398
0.967742
2.214076
1.612903
0.312805
0.674487
0.972630
3.323558
2.321603
1.119257
1.011730
2.702835
3.465298
0.322581
3.846530
2.038123
2.419355
2.565982
0.073314
1.539589
1.226784
2.028348
1.031281
1.158358
2.341153
1.363636
0.576735
1.304985
2.790811
1.006843
2.507331
0.918866
3.641251
3.059629
3.338221
0.576735
3.768328
2.189638
0.713587
1.080156
1.006843
0.513196
2.409580
2.869013
4.545455
0.650049
0.591398
4.027370
0.278592
0.444770
2.649071
1.334311
1.915934
0.425220
0.581623
1.867058
1.158358
2.160313
0.337243
1.583578
1.735093
0.948192
1.490714
2.336266
0.400782
4.423265
1.583578
1.329423
1.260997
1.173021
1.085044
1.260997
1.251222
1.363636
1.260997
1.329423
1.383187
1.378299
1.441838
1.598240
1.720430
1.754643
1.798631
1.842620
1.847507
1.862170
1.867058
1.837732
1.876833
1.857283
1.867058
1.847507
1.803519
1.798631
1.808407
1.769306
1.783969
1.666667
1.339198
2.311828
2.727273
3.900293
4.447703
3.279570
2.248289
0.229717
2.404692
1.744868
2.986315
3.748778
0.606061
1.876833
0.234604
0.762463
2.961877
0.322581
2.653959
1.402737
1.129032
0.865103
3.299120
1.779081
2.174976
3.822092
1.515152
2.913001
1.324536
1.862170
0.816227
2.453568
0.151515
0.498534
3.435973
0.821114
2.580645
2.096774
0.767351
1.295210
1.754643
0.376344
2.399804
2.209189
1.363636
1.212121
1.334311
1.060606
0.708700
1.055718
1.075269
1.026393
1.065494
1.173021
1.324536
1.505376
1.529814
1.529814
1.612903
1.681329
1.764418
1.788856
1.779081
1.823069
1.867058
1.832845
1.857283
1.862170
1.867058
1.857283
1.842620
1.837732
1.823069
1.818182
1.798631
1.774194
1.808407
1.769306
1.744868
1.749756
1.744868
1.735093
1.710655
1.739980
1.730205
1.705767
1.725318
1.681329
1.705767
1.691105
1.681329
1.666667
1.647116
1.656891
1.647116
1.652004
1.661779
1.627566
1.642229
1.617791
1.627566
1.637341
1.632454
1.617791
1.598240
1.632454
1.578690
1.612903
1.632454
1.617791
1.622678
1.612903
1.612903
1.583578
1.598240
1.578690
1.588465
1.559140
1.617791
1.598240
1.598240
1.588465
1.534702
0.874878
2.184751
1.500489
0.141740
2.570870
0.224829
3.998045
3.426197
2.644184
0.508309
3.274682
4.408602
1.197458
1.788856
1.852395
1.788856
3.699902
3.875855
3.025415
3.553275
0.884653
4.433040
0.777126
2.956989
2.170088
3.030303
1.612903
2.751711
0.303030
3.445748
1.564027
0.801564
0.537634
3.885630
1.989247
0.322581
1.275660
1.617791
1.055718
1.226784
1.060606
1.109482
1.065494
1.129032
1.129032
0.938416
1.065494
1.251222
1.568915
1.739980
1.666667
1.823069
1.871945
2.116325
1.994135
1.803519
1.671554
1.226784
1.114370
1.422287
1.798631
1.862170
1.827957
1.622678
1.979472
2.033236
1.857283
1.788856
1.783969
1.769306
1.715543
1.661779
1.681329
1.568915
1.627566
1.896383
1.871945
1.881720
1.935484
2.116325
2.047898
2.502444
3.264907
4.990225
4.995112
4.995112
4.995112
1.739980
0.000000
0.000000
0.000000
0.000000
0.000000
0.000000
0.000000
0.000000
0.000000
0.000000
0.000000
0.000000
0.000000
0.000000
0.000000
0.107527
0.043988
0.327468
0.669599
0.874878
0.982405
1.089932
1.304985
1.265885
1.226784
1.207234
1.173021
1.212121
1.207234
1.212121
1.231672
1.192571
1.124145
1.221896
1.177908
1.207234
1.138807
1.065494
1.256109
1.241447
1.256109
1.182796
1.251222
1.133920
1.119257
1.075269
1.207234
1.133920
1.138807
1.168133
1.124145
1.202346
1.177908
1.133920
1.143695
1.109482
1.089932
1.148583
1.187683
1.143695
1.148583
1.168133
1.124145
1.163245
1.182796
1.099707
1.207234
1.158358
1.143695
1.109482
1.182796
1.119257
1.182796
1.153470
1.177908
1.114370
1.182796
1.168133
1.212121
1.143695
1.182796
1.182796
1.153470
1.177908
1.129032
1.099707
1.163245
1.177908
1.192571
1.168133
1.168133
1.163245
1.129032
1.158358
1.217009
1.168133
1.173021
1.148583
1.158358
1.138807
1.050831
1.251222
1.119257
1.187683
1.192571
1.148583
1.173021
1.231672
1.148583
1.197458
1.221896
1.153470
1.138807
1.207234
1.143695
1.217009
1.260997
1.192571
1.226784
1.260997
1.212121
1.153470
1.168133
1.153470
1.202346
1.236559
1.173021
1.241447
1.212121
0.664712
0.131965
0.884653
0.840665
2.375367
3.225806
2.238514
1.045943
0.092864
0.229717
0.303030
2.570870
1.964809
2.619746
0.298143
3.172043
0.229717
1.353861
4.198436
1.950147
3.025415
2.199413
0.102639
2.003910
0.786901
2.443793
2.243402
0.689150
0.532747
1.187683
1.290323
3.846530
0.909091
2.526882
0.909091
0.923754
2.639296
2.145650
2.629521
0.948192
0.635386
1.045943
1.901271
1.661779
2.404692
0.884653
3.743891
1.339198
0.884653
2.306940
1.739980
2.091887
1.339198
3.357771
3.132942
1.554252
2.600196
2.756598
2.052786
2.033236
3.988270
2.526882
2.859238
3.660802
1.842620
1.955034
3.216031
4.061584
4.638319
3.093842
2.688172
2.350929
4.780059
2.018573
4.618768
3.856305
2.805474
4.403715
2.561095
4.623656
2.360704
4.726295
1.485826
4.745846
3.411535
1.715543
4.222874
1.524927
4.056696
0.601173
4.496579
1.329423
3.646139
4.481916
3.988270
2.502444
0.327468
1.925709
1.133920
0.909091
1.901271
2.570870
1.304985
1.124145
1.094819
0.415445
0.654936
0.171065
0.303030
0.483871
0.102639
0.000000
0.000000
0.000000
0.000000
0.000000
0.000000
0.000000
0.000000
0.000000
0.000000
0.000000
0.000000
0.000000
0.000000
0.000000
0.000000
0.000000
0.000000
0.000000
0.000000
0.000000
0.000000
0.000000
0.000000
0.000000
0.000000
0.000000
0.000000
0.000000
0.000000
0.000000
0.000000
0.000000
0.000000
0.000000
0.000000
0.000000
0.000000
0.000000
0.000000
0.000000
0.000000
0.000000
0.000000
0.000000
0.000000
0.000000
0.000000
0.000000
0.000000
0.000000
0.000000
0.000000
0.097752
0.136852
0.278592
0.312805
0.464321
0.474096
0.532747
0.581623
0.679374
0.694037
0.796676
0.904203
0.962854
1.060606
1.094819
1.207234
1.173021
1.280547
1.339198
1.344086
1.397849
1.256109
1.524927
1.480938
1.598240
1.612903
1.656891
1.603128
1.779081
1.358749
1.725318
2.038123
1.867058
1.642229
0.566960
0.840665
2.927664
2.517107
3.079179
1.050831
1.793744
2.111437
1.647116
1.456500
3.235582
3.968719
4.516129
2.258065
3.626588
4.584555
3.499511
3.162268
4.916911
3.900293
2.634409
2.751711
3.088954
2.741935
4.022483
4.926686
4.780059
4.413490
3.998045
4.946237
4.980450
4.902248
4.965787
3.758553
4.760508
4.965787
4.990225
4.975562
4.970674
4.965787
4.975562
4.990225
4.980450
4.985337
4.995112
4.990225
4.975562
4.980450
4.985337
4.970674
4.985337
4.965787
4.970674
4.985337
4.965787
4.985337
4.975562
4.970674
4.965787
4.990225
4.965787
4.985337
4.990225
4.985337
4.975562
4.985337
4.980450
4.902248
4.970674
4.970674
3.460411
4.897361
3.563050
4.912023
3.049853
3.465298
2.209189
2.810362
0.904203
1.045943
1.363636
0.131965
0.034213
1.241447
0.420332
0.068426
0.171065
0.009775
0.332356
0.014663
0.000000
0.000000
0.000000
0.000000
0.000000
0.000000
0.000000
0.000000
0.000000
0.000000
0.000000
0.000000
0.000000
0.000000
0.000000
0.000000
0.000000
0.000000
0.000000
0.000000
0.000000
0.000000
0.000000
0.000000
0.000000
0.000000
0.000000
0.000000
0.000000
0.000000
0.000000
0.000000
0.000000
0.000000
0.000000
0.000000
0.000000
0.000000
0.000000
0.000000
0.000000
0.000000
0.000000
0.000000
0.000000
0.000000
0.000000
0.000000
0.000000
0.000000
0.000000
0.000000
0.000000
0.000000
0.000000
0.000000
0.000000
0.000000
0.000000
0.000000
0.000000
0.000000
0.000000
0.000000
0.000000
0.000000
0.000000
0.000000
0.000000
0.000000
0.000000
0.000000
0.000000
0.000000
0.000000
0.000000
0.000000
0.000000
0.000000
0.000000
0.000000
0.000000
0.000000
0.000000
0.004888
0.171065
0.175953
0.200391
0.244379
0.200391
0.283480
0.376344
0.386119
0.474096
0.483871
0.606061
0.591398
0.581623
0.674487
0.640274
0.669599
0.635386
0.708700
0.928641
0.972630
1.026393
1.006843
0.997067
0.606061
1.177908
1.593353
1.207234
1.520039
1.280547
0.928641
0.434995
1.021505
0.430108
2.170088
0.850440
0.298143
0.576735
3.548387
2.253177
3.484848
0.904203
4.002933
1.979472
2.673509
1.774194
1.593353
2.370479
2.238514
0.322581
4.379277
1.666667
2.497556
2.292278
2.815249
2.917889
4.623656
4.325513
4.921799
4.960899
2.565982
4.452590
4.750733
4.516129
4.525904
4.477028
4.594330
3.172043
4.486804
4.794721
4.418377
3.582600
3.489736
4.423265
3.543500
4.457478
2.419355
4.217986
4.286413
1.989247
4.354839
4.345064
3.709677
2.834800
3.499511
3.548387
4.775171
3.294233
3.010753
2.702835
3.861193
4.305963
4.921799
2.917889
1.432063
2.258065
2.507331
4.208211
2.541544
4.046921
2.927664
1.632454
1.490714
3.665689
3.338221
3.479961
2.214076
2.981427
0.513196
4.227761
0.884653
3.274682
1.847507
0.752688
3.005865
1.984360
3.025415
2.179863
2.057674
1.207234
0.122190
1.329423
2.458456
3.704790
2.385142
0.948192
0.943304
0.576735
0.200391
0.449658
0.219941
0.532747
0.860215
0.962854
1.647116
2.238514
2.478006
2.556207
2.580645
2.561095
2.028348
1.788856
1.573803
1.163245
0.796676
0.425220
0.053763
0.000000
0.000000
0.000000
0.000000
0.000000
0.000000
0.000000
0.000000
0.000000
0.000000
0.000000
0.000000
0.000000
0.000000
0.000000
0.000000
0.000000
0.000000
0.000000
0.000000
0.000000
0.000000
0.000000
0.000000
0.000000
0.000000
0.000000
0.000000
0.000000
0.000000
0.000000
0.083089
0.283480
0.610948
0.884653
0.953079
0.962854
1.402737
1.285435
1.368524
1.490714
1.524927
1.666667
1.769306
2.033236
1.999022
2.145650
2.126100
2.189638
2.223851
2.370479
2.521994
2.580645
2.521994
2.585533
2.399804
2.409580
2.512219
2.512219
2.487781
2.644184
2.785924
2.825024
2.795699
2.746823
2.771261
2.756598
2.820137
2.717498
2.815249
2.790811
2.903226
2.722385
2.707722
3.020528
2.829912
2.785924
2.634409
2.409580
2.043011
1.392962
2.267840
1.744868
4.535679
3.611926
2.018573
3.255132
1.358749
1.852395
2.086999
3.499511
2.194526
4.828935
2.223851
4.589443
0.904203
3.387097
0.215054
4.335288
1.725318
3.304008
2.639296
2.438905
3.015640
2.825024
4.447703
4.882698
4.956012
3.743891
4.858260
4.819159
3.846530
4.760508
4.975562
4.902248
4.965787
3.900293
4.892473
4.960899
4.970674
4.985337
4.931574
4.975562
4.848485
4.775171
4.956012
4.980450
4.613881
4.902248
1.642229
4.775171
4.965787
4.169110
4.061584
4.892473
1.265885
4.222874
3.201369
3.651026
3.216031
4.755621
3.435973
1.373412
3.113392
2.697947
3.157380
3.567937
1.373412
2.991202
2.233627
1.021505
3.651026
3.988270
0.742913
1.089932
0.459433
4.618768
0.410557
1.348974
2.546432
0.478983
1.568915
1.505376
2.126100
2.893451
1.686217
1.363636
1.886608
2.795699
3.279570
1.104594
0.078201
2.600196
2.214076
2.419355
1.251222
1.036168
0.151515
0.342131
0.454545
0.273705
0.244379
0.434995
1.202346
1.989247
2.844575
3.553275
3.548387
4.164223
4.364614
4.457478
4.511241
4.276637
3.826979
3.274682
2.668622
1.759531
1.270772
0.215054
0.009775
0.000000
0.000000
0.000000
0.000000
0.000000
0.000000
0.000000
0.000000
0.000000
0.000000
0.000000
0.000000
0.000000
0.000000
0.000000
0.000000
0.000000
0.000000
0.000000
0.000000
0.000000
0.000000
0.000000
0.000000
0.000000
0.000000
0.000000
0.000000
0.000000
0.000000
0.000000
0.000000
0.000000
0.000000
0.000000
0.000000
0.000000
0.000000
0.000000
0.000000
0.000000
0.000000
0.000000
0.000000
0.000000
0.000000
0.068426
0.117302
0.386119
0.478983
0.679374
0.728250
0.899316
1.085044
1.133920
1.270772
1.358749
1.505376
1.681329
1.744868
1.911046
1.940371
2.008798
1.959922
2.174976
2.091887
2.375367
2.331378
2.795699
2.761486
2.683284
2.473118
1.739980
1.999022
2.194526
4.173998
4.579668
2.976540
3.137830
2.697947
4.100684
3.235582
4.667644
1.906158
1.691105
3.367546
2.038123
4.853372
4.941349
4.736070
4.569892
4.213099
4.926686
4.804497
4.965787
4.965787
4.985337
4.965787
4.975562
4.985337
4.970674
4.985337
4.970674
4.980450
4.995112
4.980450
4.975562
4.985337
4.980450
4.985337
4.965787
4.985337
4.965787
4.970674
4.990225
4.970674
4.985337
4.980450
4.965787
4.965787
4.745846
4.868035
4.980450
4.975562
4.985337
3.905181
4.882698
4.770283
3.025415
3.479961
3.362659
4.828935
3.626588
2.018573
1.617791
0.127077
4.276637
3.299120
0.347019
2.253177
2.072336
0.547410
0.043988
1.544477
1.119257
0.513196
0.029326
1.681329
0.376344
0.615836
0.043988
0.000000
0.317693
1.256109
0.039101
0.073314
0.361681
0.019550
0.000000
0.000000
0.000000
0.444770
0.019550
0.000000
0.215054
0.713587
0.034213
0.410557
0.000000
1.383187
1.915934
0.488759
1.617791
0.083089
1.202346
1.417400
1.510264
1.427175
1.324536
1.378299
1.647116
1.735093
2.429130
2.834800
3.044966
3.567937
4.046921
4.281525
4.433040
4.604106
4.320626
4.721408
4.354839
4.423265
4.271750
3.519062
1.451613
1.857283
2.956989
4.393939
4.887586
4.995112
4.990225
4.995112
4.995112
3.978495
2.541544
4.960899
4.843597
4.990225
4.995112
4.154448
2.253177
4.125122
4.912023
4.951124
4.565005
1.456500
1.915934
2.473118
2.409580
3.054741
0.009775
0.303030
0.180841
0.821114
1.119257
0.029326
1.392962
0.000000
0.000000
0.000000
0.024438
0.982405
1.647116
0.000000
0.811339
0.000000
1.852395
0.000000
0.850440
0.415445
1.114370
1.622678
2.179863
2.179863
2.174976
1.109482
0.303030
0.000000
0.000000
0.000000
0.000000
0.000000
0.620723
0.224829
0.782014
0.845552
0.542522
0.019550
0.000000
0.000000
0.000000
0.000000
0.728250
3.533724
4.501466
4.926686
4.995112
4.990225
4.384164
3.651026
4.134897
3.401760
2.287390
3.910068
3.313783
2.600196
2.409580
3.098729
2.526882
1.886608
2.292278
2.678397
2.038123
3.260020
3.093842
3.035191
3.514174
3.391984
3.206256
2.756598
3.553275
3.103617
2.106549
2.776149
4.130010
4.995112
4.995112
4.995112
1.075269
0.000000
0.000000
0.000000
0.000000
0.000000
0.000000
0.014663
4.154448
3.616813
4.677419
3.035191
4.995112
1.754643
4.340176
0.703812
1.075269
4.770283
4.990225
2.834800
3.890518
0.933529
0.532747
4.657869
3.015640
3.362659
2.663734
4.985337
4.990225
4.985337
4.995112
4.995112
5.000000
4.995112
4.995112
4.995112
4.115347
0.000000
0.000000
0.000000
0.000000
0.000000
0.000000
0.000000
0.000000
0.000000
1.999022
3.191593
4.565005
4.941349
4.912023
4.643206
4.574780
3.670577
4.975562
4.985337
4.980450
4.696970
3.822092
3.387097
3.924731
3.465298
3.431085
2.908113
1.744868
2.375367
3.064516
2.653959
2.541544
3.010753
3.934506
2.614858
3.084066
2.199413
1.788856
1.876833
3.206256
2.810362
4.980450
4.032258
3.308895
0.293255
0.312805
0.000000
0.000000
0.000000
0.000000
0.298143
4.447703
4.848485
4.941349
4.740958
4.887586
4.995112
4.960899
4.990225
4.995112
4.995112
4.995112
4.183773
3.049853
3.983382
0.664712
0.107527
0.000000
0.000000
0.073314
1.129032
2.311828
4.819159
4.584555
3.611926
3.895406
0.356794
0.381232
0.131965
0.000000
0.000000
0.000000
1.060606
4.936461
4.828935
3.797654
3.040078
1.300098
3.176931
3.362659
4.789834
4.178886
4.213099
5.000000
4.843597
4.266862
4.232649
4.423265
4.980450
4.995112
4.980450
4.995112
1.534702
0.092864
0.000000
0.000000
3.856305
5.000000
5.000000
5.000000
1.691105
0.000000
0.000000
0.000000
0.000000
0.000000
0.000000
0.000000
0.000000
0.000000
0.000000
0.000000
0.000000
0.000000
0.000000
4.271750
4.208211
1.212121
0.000000
0.000000
4.912023
4.995112
4.995112
5.000000
5.000000
4.995112
4.980450
4.780059
4.985337
4.975562
4.848485
4.970674
4.076246
4.975562
4.599218
4.291300
3.773216
2.570870
0.083089
0.102639
1.026393
4.604106
4.995112
5.000000
4.995112
5.000000
4.985337
4.995112
5.000000
5.000000
4.995112
4.227761
0.009775
0.000000
0.000000
0.000000
0.000000
0.000000
0.000000
0.000000
0.000000
0.000000
0.000000
0.000000
0.000000
0.000000
0.000000
0.000000
0.000000
0.000000
0.000000
0.000000
0.000000
0.361681
0.210166
0.185728
2.424242
2.502444
2.653959
2.932551
3.054741
1.945259
3.059629
3.577713
4.066471
0.635386
0.263930
0.000000
0.000000
4.613881
4.995112
4.995112
5.000000
4.995112
4.995112
4.995112
5.000000
4.995112
4.965787
4.296188
3.895406
4.931574
4.916911
2.385142
1.260997
2.214076
1.065494
0.175953
4.125122
1.925709
2.834800
2.707722
0.004888
1.466276
1.559140
0.175953
0.493646
1.446725
0.391007
1.432063
0.029326
1.388074
0.185728
2.419355
1.446725
3.670577
3.528837
1.329423
3.582600
2.556207
4.066471
2.043011
0.928641
2.165200
3.885630
0.772239
1.920821
3.245357
0.288368
3.167155
0.337243
2.917889
2.878788
2.326491
1.783969
4.125122
5.000000
4.995112
5.000000
3.768328
2.072336
0.865103
0.000000
0.000000
0.000000
0.000000
0.000000
2.238514
4.990225
5.000000
5.000000
5.000000
5.000000
4.995112
4.995112
4.413490
3.216031
2.575758
2.160313
2.223851
3.235582
2.717498
2.937439
1.691105
1.388074
0.014663
0.962854
1.544477
0.039101
0.830890
0.087977
2.135875
2.336266
2.111437
1.270772
3.123167
2.619746
1.867058
0.728250
0.000000
0.000000
4.662757
4.995112
4.995112
4.995112
5.000000
5.000000
0.136852
0.000000
0.000000
0.000000
0.000000
0.000000
0.000000
0.000000
0.000000
0.000000
0.000000
3.230694
4.995112
4.995112
5.000000
4.995112
4.990225
3.695015
4.980450
5.000000
5.000000
4.995112
4.662757
4.472141
4.897361
4.995112
5.000000
3.040078
3.729228
2.761486
4.956012
1.661779
0.488759
0.083089
2.018573
0.000000
0.000000
0.000000
0.000000
2.634409
4.418377
4.990225
4.995112
3.983382
3.743891
2.111437
0.000000
0.000000
4.985337
4.970674
2.966764
1.265885
0.024438
0.000000
0.000000
0.000000
0.000000
0.000000
0.000000
0.000000
2.526882
4.579668
4.672532
2.805474
0.474096
0.190616
0.009775
0.190616
1.368524
0.298143
1.847507
1.471163
1.964809
1.300098
2.913001
2.658847
2.028348
3.739003
3.494624
1.505376
3.108504
1.148583
2.737048
2.135875
2.121212
2.820137
2.394917
3.563050
3.367546
3.005865
2.859238
0.391007
1.999022
0.552297
1.407625
1.260997
1.783969
1.544477
2.688172
1.818182
2.135875
1.158358
3.396872
2.140762
1.671554
2.311828
2.453568
2.130987
0.361681
1.593353
1.945259
1.260997
0.904203
1.715543
1.334311
0.493646
0.884653
2.189638
0.997067
1.407625
0.527859
0.884653
1.050831
1.715543
1.422287
0.371457
1.915934
1.588465
4.936461
2.859238
0.786901
0.058651
0.000000
0.625611
1.515152
0.537634
0.415445
0.024438
0.000000
0.029326
0.869990
0.840665
0.610948
1.950147
0.869990
0.415445
1.950147
1.129032
0.356794
1.749756
0.322581
4.863148
4.286413
1.236559
0.288368
0.786901
0.053763
0.004888
0.000000
0.219941
0.459433
0.772239
0.146628
1.353861
0.415445
1.319648
0.361681
1.236559
0.092864
0.004888
3.103617
3.607038
4.872923
4.956012
4.980450
4.980450
4.990225
4.975562
4.965787
4.965787
4.985337
4.965787
4.985337
4.965787
4.985337
4.970674
4.985337
4.965787
4.990225
4.960899
4.711632
0.835777
0.029326
0.000000
0.000000
0.000000
0.000000
0.000000
0.000000
0.000000
0.000000
0.000000
0.000000
0.000000
0.000000
0.000000
0.000000
0.000000
0.000000
0.000000
0.000000
0.000000
0.000000
0.000000
0.000000
0.000000
0.000000
0.000000
0.000000
0.000000
0.000000
0.000000
0.000000
0.000000
0.000000
0.000000
0.000000
0.000000
0.000000
0.000000
0.000000
0.000000
0.000000
0.000000
0.000000
0.000000
0.000000
0.000000
0.000000
0.000000
0.000000
0.000000
0.000000
0.000000
0.000000
0.000000
0.000000
0.000000
0.000000
0.000000
0.000000
0.000000
1.955034
0.195503
0.698925
0.039101
0.000000
0.000000
0.127077
0.840665
0.845552
0.327468
0.356794
0.141740
0.122190
0.312805
0.014663
3.035191
2.673509
1.554252
0.268817
0.063539
2.062561
0.166178
2.174976
1.031281
0.571848
0.762463
0.630499
0.654936
0.913978
0.855327
0.869990
0.987292
1.177908
1.304985
1.466276
1.676442
1.862170
2.140762
2.243402
2.541544
2.619746
2.556207
2.658847
2.585533
2.854350
2.820137
2.834800
2.971652
3.040078
3.152493
3.201369
3.308895
3.743891
3.734115
3.724340
3.475073
3.954057
3.939394
3.958944
4.188661
4.237537
4.320626
4.403715
4.535679
4.687195
4.745846
4.745846
4.853372
4.799609
4.907136
4.897361
4.975562
4.946237
4.858260
4.936461
4.960899
4.970674
4.990225
4.960899
4.965787
4.921799
4.980450
4.877810
4.975562
4.965787
4.980450
4.960899
4.970674
4.960899
4.784946
4.931574
4.985337
4.887586
4.936461
4.941349
4.828935
4.770283
4.833822
4.863148
4.706745
4.755621
4.535679
4.408602
4.667644
4.545455
4.442815
4.320626
4.462366
4.286413
4.349951
4.354839
4.369501
3.958944
3.367546
3.778104
4.848485
4.902248
3.856305
2.179863
2.927664
4.398827
4.960899
4.897361
2.179863
4.183773
4.926686
3.460411
4.740958
2.908113
4.178886
4.956012
4.051808
4.892473
3.484848
4.305963
1.935484
2.546432
4.437928
4.261975
3.978495
1.148583
4.193548
3.074291
1.500489
4.608993
2.800587
3.739003
3.035191
4.613881
2.531769
2.873900
1.270772
4.819159
3.108504
1.764418
4.403715
2.688172
1.480938
0.630499
4.281525
0.801564
4.604106
1.568915
0.322581
4.208211
0.679374
4.066471
3.049853
4.633431
1.026393
0.307918
4.584555
0.698925
3.665689
2.903226
1.588465
0.664712
1.886608
4.154448
0.889541
3.983382
0.405670
3.641251
2.653959
1.608016
3.475073
1.925709
0.767351
3.709677
1.490714
0.909091
4.750733
0.718475
3.343109
0.288368
1.392962
3.523949
3.108504
1.133920
1.260997
2.756598
3.885630
3.289345
3.592375
2.018573
1.231672
0.063539
4.115347
1.099707
0.039101
2.043011
3.167155
1.852395
0.762463
0.894428
0.923754
0.786901
0.718475
0.566960
0.488759
0.635386
0.615836
0.576735
0.620723
0.718475
0.811339
0.845552
0.840665
0.879765
0.928641
0.918866
0.899316
0.816227
0.953079
0.933529
0.913978
0.967742
0.953079
1.016618
1.168133
1.192571
1.124145
1.138807
1.163245
1.285435
1.143695
1.060606
1.212121
1.309873
1.422287
1.700880
2.140762
2.531769
2.981427
3.607038
4.418377
4.926686
4.975562
4.990225
4.965787
4.990225
4.990225
4.975562
4.970674
4.985337
4.965787
4.985337
4.965787
4.985337
4.985337
4.980450
4.965787
4.965787
4.985337
4.965787
4.965787
4.975562
4.995112
4.975562
4.985337
4.990225
4.980450
4.965787
4.980450
4.990225
4.980450
4.975562
4.975562
4.975562
4.985337
4.965787
4.985337
4.369501
3.817204
3.269795
2.546432
2.033236
1.647116
1.192571
0.386119
0.004888
0.000000
0.000000
0.000000
0.000000
0.000000
0.000000
0.000000
0.000000
0.000000
0.000000
0.000000
0.000000
0.000000
0.000000
0.000000
0.000000
0.000000
0.000000
0.298143
0.039101
3.343109
0.166178
0.972630
0.112414
0.004888
0.000000
0.000000
0.000000
0.000000
0.000000
0.000000
0.000000
0.000000
0.000000
0.000000
0.000000
0.000000
0.000000
0.000000
0.000000
0.000000
0.000000
0.000000
0.000000
0.000000
0.000000
0.000000
0.000000
0.000000
0.000000
0.000000
0.000000
0.000000
0.000000
0.000000
0.000000
0.000000
0.000000
0.000000
0.000000
0.000000
0.000000
0.000000
0.000000
0.000000
0.000000
0.000000
0.000000
0.000000
0.000000
0.000000
0.000000
0.000000
0.000000
0.000000
0.000000
0.000000
0.000000
0.180841
0.000000
0.000000
0.943304
0.083089
0.000000
0.000000
0.601173
0.742913
0.122190
0.004888
1.388074
0.151515
3.157380
0.244379
0.014663
1.915934
2.028348
1.080156
1.417400
3.763441
2.673509
0.689150
2.179863
2.551320
1.549365
1.559140
1.637341
1.334311
0.742913
1.451613
1.109482
1.246334
1.050831
0.997067
1.158358
1.168133
1.300098
1.407625
1.480938
1.485826
1.573803
1.612903
1.779081
1.852395
1.959922
2.194526
2.106549
2.287390
2.262952
2.238514
2.238514
2.497556
2.468231
2.463343
2.565982
2.526882
2.697947
2.580645
2.732160
2.712610
3.064516
3.074291
3.005865
3.000978
3.079179
3.059629
3.113392
3.064516
3.088954
3.137830
3.123167
3.137830
3.196481
3.216031
3.250244
3.308895
3.284457
3.289345
3.250244
3.352884
3.323558
3.328446
3.284457
3.264907
3.260020
3.230694
3.235582
3.269795
3.299120
3.211144
3.333333
3.318671
3.347996
3.245357
3.294233
3.240469
3.103617
3.235582
3.245357
3.176931
3.172043
3.128055
3.093842
3.074291
3.010753
2.991202
3.216031
2.932551
3.250244
3.196481
2.961877
3.289345
3.304008
2.512219
2.404692
2.302053
2.776149
4.266862
4.477028
2.429130
3.025415
3.074291
3.563050
2.800587
4.613881
3.367546
1.637341
3.098729
3.680352
4.012708
4.936461
0.782014
2.184751
2.878788
4.872923
3.132942
3.973607
1.906158
0.874878
2.639296
3.372434
4.061584
1.363636
2.766373
0.552297
2.350929
3.851417
3.465298
1.041056
1.016618
3.563050
0.386119
1.886608
3.108504
3.494624
0.508309
2.556207
2.820137
2.057674
0.317693
0.840665
3.880743
1.999022
1.955034
3.778104
0.263930
1.275660
3.396872
2.204301
3.220919
1.764418
0.073314
1.520039
3.787879
1.700880
1.485826
2.463343
2.238514
0.948192
1.656891
0.175953
4.012708
3.455523
0.166178
1.735093
0.845552
1.578690
3.470186
1.031281
0.664712
3.079179
0.322581
3.778104
1.598240
1.515152
2.981427
2.644184
0.107527
3.782991
1.818182
3.729228
2.639296
0.229717
1.031281
2.018573
3.787879
2.184751
0.977517
0.826002
3.098729
2.693060
1.808407
1.471163
1.163245
1.021505
1.402737
1.182796
0.850440
0.684262
0.527859
0.625611
0.723363
0.830890
0.933529
0.913978
0.816227
0.816227
0.786901
0.845552
0.772239
0.796676
0.909091
0.899316
0.865103
0.782014
0.943304
1.075269
0.684262
1.094819
1.016618
1.031281
0.997067
1.045943
1.085044
1.124145
1.148583
1.295210
1.622678
1.432063
1.876833
1.749756
1.749756
1.671554
1.832845
1.730205
1.676442
1.813294
1.808407
1.783969
1.788856
1.783969
1.901271
1.642229
1.906158
2.023460
1.920821
1.827957
1.803519
1.803519
1.779081
1.632454
2.013685
1.857283
1.793744
1.818182
1.867058
1.847507
1.764418
1.686217
1.935484
1.857283
1.764418
1.808407
1.818182
1.759531
1.730205
1.906158
1.764418
1.901271
1.793744
1.759531
1.710655
1.798631
1.744868
1.686217
1.842620
1.871945
1.754643
1.666667
1.671554
1.940371
1.808407
1.808407
1.774194
1.676442
1.691105
1.769306
1.529814
1.749756
1.739980
1.700880
1.920821
1.852395
1.725318
1.710655
1.544477
1.666667
1.490714
2.101662
2.038123
2.810362
1.935484
2.448680
4.183773
2.394917
2.326491
1.085044
4.501466
0.694037
2.981427
1.451613
1.417400
1.647116
0.997067
3.631476
2.575758
2.429130
1.036168
1.686217
2.619746
0.361681
4.677419
3.005865
0.454545
2.292278
1.163245
3.802542
0.772239
2.517107
1.422287
2.565982
0.918866
3.137830
1.104594
1.251222
0.684262
4.076246
2.785924
0.351906
1.935484
2.649071
1.217009
1.129032
1.564027
2.702835
1.461388
2.297165
1.031281
1.060606
0.034213
1.598240
4.105572
1.915934
0.136852
0.923754
0.806452
3.000978
0.928641
0.356794
1.383187
1.774194
1.471163
2.829912
0.415445
1.182796
0.879765
0.977517
1.754643
3.729228
1.783969
1.075269
0.483871
1.534702
1.368524
2.556207
1.383187
0.151515
2.644184
0.351906
2.355816
1.769306
0.835777
0.083089
0.830890
2.047898
0.742913
3.318671
1.637341
2.590420
0.909091
1.759531
1.466276
2.409580
3.123167
0.855327
2.565982
0.288368
3.064516
3.968719
1.730205
1.867058
1.940371
1.989247
1.686217
1.749756
2.155425
1.984360
1.818182
1.808407
1.847507
1.886608
2.008798
1.979472
1.935484
1.896383
1.935484
3.142717
5.000000
5.000000
5.000000
5.000000
5.000000
5.000000
5.000000
5.000000
5.000000
4.956012
4.931574
4.995112
1.705767
1.671554
4.677419
4.926686
5.000000
5.000000
0.029326
0.000000
0.000000
0.000000
0.000000
0.000000
0.000000
0.000000
3.729228
0.014663
0.000000
0.000000
0.000000
0.000000
0.000000
0.000000
0.000000
0.000000
0.000000
0.000000
0.000000
4.970674
5.000000
5.000000
4.985337
5.000000
4.975562
2.922776
2.184751
0.459433
2.013685
1.832845
3.431085
1.813294
0.591398
1.378299
0.679374
0.391007
0.000000
2.057674
0.092864
0.185728
0.219941
2.067449
2.526882
2.512219
2.077224
1.187683
0.004888
3.240469
0.522972
3.333333
4.662757
4.740958
4.985337
4.227761
4.569892
4.692082
4.105572
4.565005
4.633431
1.334311
1.339198
1.309873
1.314761
1.324536
1.295210
1.300098
1.304985
1.304985
1.290323
1.256109
1.290323
1.280547
1.260997
1.265885
1.290323
1.290323
1.285435
1.260997
1.275660
1.256109
1.221896
1.280547
1.260997
1.275660
1.256109
1.217009
1.260997
1.246334
1.260997
1.251222
1.231672
1.260997
1.236559
1.246334
1.260997
1.275660
1.260997
1.246334
1.226784
1.260997
1.236559
1.221896
1.236559
1.197458
1.217009
1.231672
1.217009
1.241447
1.236559
1.202346
1.231672
1.221896
1.212121
1.207234
1.231672
1.221896
1.246334
1.231672
1.221896
1.212121
1.226784
1.226784
1.251222
1.217009
1.241447
1.207234
1.202346
1.217009
1.280547
1.221896
1.221896
1.236559
1.217009
1.236559
1.241447
1.231672
1.226784
1.256109
1.314761
1.241447
1.226784
1.148583
1.256109
1.236559
1.187683
1.251222
1.182796
1.280547
1.270772
1.192571
1.256109
1.270772
1.133920
1.114370
0.987292
1.006843
1.143695
1.202346
0.747801
1.373412
0.508309
1.852395
1.295210
0.635386
2.111437
0.288368
2.517107
0.679374
2.619746
1.627566
0.615836
1.490714
1.251222
2.947214
1.168133
1.945259
1.104594
0.175953
2.424242
0.434995
2.913001
0.786901
2.272727
1.031281
1.842620
0.307918
2.971652
0.356794
2.331378
2.135875
1.251222
0.312805
2.585533
2.341153
0.395894
2.942326
1.392962
1.593353
0.259042
3.528837
2.565982
2.155425
0.430108
2.693060
2.693060
1.192571
0.351906
2.609971
0.791789
2.453568
2.663734
0.312805
1.309873
1.564027
1.832845
2.008798
0.425220
3.206256
0.654936
1.793744
0.767351
2.751711
1.304985
0.684262
1.265885
2.683284
0.606061
3.084066
0.933529
0.635386
0.293255
1.920821
4.090909
0.728250
0.347019
2.375367
2.150538
0.298143
0.630499
1.871945
0.239492
3.074291
1.720430
0.425220
1.974585
1.344086
1.871945
1.656891
0.786901
0.503421
2.507331
0.562072
0.786901
3.269795
1.422287
2.385142
0.136852
2.463343
3.792766
2.341153
0.327468
2.507331
1.143695
3.567937
0.640274
1.285435
0.146628
3.743891
2.908113
0.219941
1.177908
1.779081
1.446725
3.831867
2.385142
1.402737
1.119257
1.060606
1.026393
0.757576
0.689150
0.757576
0.547410
0.596285
0.713587
0.723363
0.777126
0.664712
0.581623
0.576735
0.513196
0.566960
0.694037
0.723363
0.777126
0.865103
0.615836
0.796676
1.168133
0.962854
0.796676
0.772239
0.728250
0.938416
0.762463
1.070381
1.060606
1.050831
1.036168
1.080156
1.065494
1.265885
1.392962
1.471163
1.446725
1.588465
1.578690
1.612903
1.505376
1.524927
1.612903
1.637341
1.671554
1.603128
1.598240
1.578690
1.598240
1.608016
1.720430
1.671554
1.798631
1.612903
1.725318
1.715543
1.730205
1.642229
1.793744
1.906158
1.715543
1.847507
1.710655
1.700880
1.832845
2.106549
2.003910
1.867058
1.974585
1.964809
1.735093
0.874878
1.896383
0.249267
1.500489
1.891496
3.841642
2.292278
0.752688
0.063539
3.665689
2.067449
1.236559
2.805474
4.584555
1.876833
3.157380
0.249267
4.056696
2.043011
2.937439
3.861193
1.153470
0.498534
2.272727
3.695015
1.612903
2.693060
1.783969
0.684262
1.065494
1.774194
3.494624
1.129032
2.600196
0.532747
0.078201
4.105572
0.439883
2.556207
1.480938
2.258065
1.016618
2.170088
0.869990
2.067449
1.177908
2.292278
0.889541
2.917889
0.542522
1.436950
1.099707
4.628543
0.537634
2.727273
1.554252
1.451613
2.468231
1.168133
1.485826
1.578690
2.243402
2.531769
0.322581
0.610948
1.598240
2.952102
1.124145
1.021505
1.236559
1.871945
1.295210
1.573803
0.127077
4.521017
1.783969
0.723363
0.043988
2.561095
1.016618
3.597263
2.478006
0.117302
2.512219
3.792766
2.365591
1.373412
0.625611
1.505376
1.129032
0.938416
0.860215
1.001955
0.923754
0.552297
1.001955
0.791789
0.786901
0.757576
0.879765
1.045943
1.148583
1.109482
1.041056
1.045943
1.026393
0.972630
0.913978
0.962854
0.757576
0.708700
0.811339
1.045943
1.138807
1.173021
1.348974
1.285435
1.280547
1.217009
1.451613
1.485826
1.402737
1.544477
1.612903
1.598240
1.583578
1.578690
1.671554
1.656891
1.637341
1.837732
1.764418
1.735093
1.617791
1.920821
1.730205
1.808407
1.857283
1.783969
1.783969
1.852395
1.876833
1.783969
1.837732
1.798631
1.813294
1.940371
1.788856
1.896383
1.852395
1.793744
1.779081
1.720430
1.827957
1.911046
1.827957
1.715543
1.945259
1.876833
1.832845
1.793744
1.793744
1.813294
1.798631
1.793744
1.779081
1.715543
1.896383
1.783969
1.813294
1.705767
1.901271
1.730205
1.871945
1.798631
1.769306
1.769306
1.862170
1.793744
1.754643
1.759531
1.915934
1.798631
1.779081
1.661779
1.891496
1.837732
1.808407
1.862170
1.793744
1.735093
1.881720
1.720430
1.955034
1.862170
1.808407
1.686217
1.656891
1.314761
1.847507
0.200391
0.879765
1.964809
4.164223
2.942326
1.612903
1.930596
2.331378
0.801564
2.771261
4.618768
3.665689
3.509286
3.118280
2.746823
0.513196
1.446725
3.714565
0.874878
3.626588
1.510264
0.391007
3.128055
3.538612
0.830890
1.363636
0.899316
3.191593
0.738025
1.925709
2.961877
0.654936
0.332356
2.487781
2.961877
0.513196
1.422287
2.512219
0.288368
2.849462
2.942326
2.262952
0.444770
0.962854
1.524927
2.394917
2.781036
2.473118
0.219941
1.549365
3.093842
3.509286
2.546432
0.107527
0.004888
2.463343
1.554252
3.196481
1.451613
0.527859
0.366569
2.864125
1.661779
0.166178
2.443793
2.135875
2.292278
0.219941
1.036168
0.474096
1.930596
0.630499
2.287390
2.458456
0.224829
0.180841
0.850440
2.507331
3.479961
1.593353
0.239492
1.314761
0.752688
2.605083
3.103617
1.353861
0.459433
3.088954
0.298143
3.870968
1.559140
0.508309
4.027370
0.205279
2.722385
3.367546
1.099707
2.130987
0.801564
0.464321
2.453568
3.577713
1.666667
1.021505
1.647116
1.231672
1.041056
1.212121
1.138807
0.733138
0.684262
0.884653
0.835777
1.133920
1.109482
1.016618
0.948192
0.869990
0.957967
1.104594
0.977517
0.889541
0.630499
1.045943
0.889541
1.075269
0.977517
0.982405
0.913978
1.177908
1.065494
1.256109
1.300098
1.358749
1.417400
1.427175
1.270772
1.632454
1.612903
1.559140
1.666667
1.788856
1.803519
1.749756
1.593353
1.925709
1.871945
1.715543
1.769306
1.842620
1.735093
1.710655
1.725318
1.891496
1.881720
1.886608
1.808407
1.779081
2.003910
1.925709
2.106549
2.023460
1.911046
1.818182
1.774194
1.813294
1.788856
1.920821
2.096774
1.911046
1.715543
1.974585
1.920821
1.920821
1.803519
1.695992
2.145650
1.945259
1.876833
1.842620
1.886608
1.886608
1.832845
1.940371
1.955034
2.062561
1.886608
1.710655
1.906158
1.842620
1.837732
1.715543
1.686217
1.964809
1.886608
1.803519
1.857283
1.739980
1.881720
2.072336
2.458456
2.590420
2.047898
1.818182
1.559140
2.052786
1.793744
1.226784
2.067449
2.052786
3.260020
1.295210
4.330401
3.690127
2.556207
2.214076
2.096774
3.005865
2.194526
1.764418
1.373412
4.154448
2.825024
2.512219
1.109482
0.122190
4.012708
1.876833
1.055718
2.424242
3.660802
1.500489
0.190616
2.194526
2.448680
1.764418
2.619746
1.089932
1.852395
0.356794
3.660802
1.192571
1.529814
1.471163
0.552297
4.393939
0.454545
0.043988
4.090909
0.684262
1.329423
2.282502
1.290323
2.277615
0.694037
2.800587
1.358749
0.244379
2.072336
2.619746
1.955034
0.381232
3.245357
0.601173
3.406647
2.707722
1.304985
0.249267
2.590420
2.336266
3.279570
1.363636
0.713587
0.738025
0.464321
3.782991
0.327468
1.348974
2.438905
2.204301
1.075269
0.136852
1.959922
2.013685
3.313783
2.434018
0.386119
0.107527
4.252199
2.639296
2.145650
0.508309
0.043988
1.295210
2.595308
2.688172
2.248289
3.792766
0.933529
0.918866
0.107527
3.230694
1.593353
1.031281
1.422287
1.163245
0.840665
1.163245
1.045943
0.811339
0.957967
1.104594
1.251222
1.309873
1.324536
1.275660
0.904203
1.304985
1.085044
1.060606
0.869990
0.689150
0.630499
0.376344
0.742913
0.601173
0.899316
0.918866
0.992180
1.050831
1.392962
1.363636
1.573803
1.520039
1.446725
1.231672
1.627566
1.505376
1.534702
1.656891
1.676442
1.637341
1.691105
1.710655
1.793744
1.788856
1.891496
1.974585
1.891496
1.793744
1.744868
1.823069
1.808407
1.813294
1.857283
1.930596
1.955034
1.808407
1.994135
2.023460
2.003910
1.901271
1.886608
1.783969
1.901271
1.901271
1.891496
2.013685
1.989247
1.930596
1.969697
1.862170
1.935484
1.705767
1.964809
1.852395
1.876833
1.847507
1.832845
1.969697
1.886608
1.989247
1.994135
1.969697
1.935484
1.744868
1.901271
1.852395
1.915934
1.862170
1.867058
1.739980
2.047898
1.832845
1.783969
1.989247
1.730205
2.028348
1.735093
1.779081
2.292278
1.935484
2.956989
1.818182
2.316716
0.982405
1.476051
1.862170
2.883675
2.419355
2.707722
0.962854
4.433040
2.649071
1.241447
4.374389
2.033236
1.036168
1.578690
1.295210
2.512219
2.482893
2.277615
0.400782
3.704790
0.757576
2.673509
2.238514
0.659824
1.173021
2.790811
0.953079
1.827957
1.832845
0.449658
1.940371
3.162268
3.015640
1.016618
0.772239
0.332356
4.257087
1.168133
3.328446
1.094819
1.490714
0.254154
2.326491
1.231672
2.556207
1.642229
0.136852
4.281525
0.527859
3.098729
3.167155
0.703812
2.258065
0.273705
3.167155
2.727273
0.879765
1.104594
0.273705
4.007820
1.133920
2.306940
0.298143
4.188661
0.464321
2.771261
1.089932
1.476051
3.528837
2.580645
0.513196
1.510264
0.151515
2.448680
2.976540
3.914956
1.197458
1.495601
0.107527
3.450635
2.976540
2.497556
2.067449
2.492669
0.224829
1.984360
2.155425
1.402737
2.561095
1.818182
0.102639
0.464321
0.366569
4.579668
2.829912
1.207234
1.016618
1.451613
1.177908
1.070381
1.001955
1.011730
1.021505
1.021505
1.832845
1.842620
1.959922
1.862170
1.788856
1.823069
1.837732
1.798631
1.744868
1.969697
1.739980
1.906158
1.769306
1.837732
1.793744
1.764418
1.779081
1.754643
1.744868
1.700880
1.730205
1.666667
1.637341
1.715543
1.661779
1.612903
0.659824
2.609971
1.119257
0.224829
0.777126
3.103617
1.612903
3.406647
2.600196
2.531769
1.353861
0.772239
1.695992
4.379277
2.561095
2.262952
2.893451
2.057674
1.407625
1.466276
4.173998
1.217009
2.732160
0.303030
1.324536
0.425220
3.866080
2.658847
4.271750
3.035191
3.387097
0.811339
3.895406
1.500489
0.557185
1.314761
4.457478
3.802542
0.303030
2.585533
3.968719
0.127077
4.589443
0.224829
3.401760
2.966764
0.796676
0.185728
4.149560
1.710655
0.381232
4.056696
1.656891
1.314761
1.031281
0.821114
0.767351
0.786901
0.796676
0.723363
1.265885
1.280547
1.285435
1.436950
1.612903
1.715543
1.857283
1.720430
1.974585
1.896383
1.974585
2.199413
1.803519
1.969697
1.935484
1.989247
1.940371
1.788856
1.896383
1.769306
1.686217
1.886608
1.891496
1.906158
1.886608
1.930596
1.862170
1.886608
1.798631
1.793744
1.539589
0.777126
4.481916
0.757576
2.526882
0.664712
4.711632
2.717498
0.728250
3.963832
3.885630
2.746823
3.538612
1.060606
1.959922
3.919844
0.395894
2.810362
0.689150
0.263930
4.169110
0.185728
2.443793
1.304985
0.581623
1.173021
0.552297
3.455523
1.485826
1.867058
3.890518
0.087977
1.695992
0.645161
2.829912
0.557185
0.332356
3.338221
0.708700
4.120235
1.510264
4.222874
0.004888
1.749756
0.219941
1.955034
0.068426
1.593353
1.045943
2.502444
0.698925
1.945259
1.104594
1.114370
1.001955
0.757576
0.987292
0.977517
0.811339
0.806452
0.654936
1.295210
1.534702
2.077224
1.969697
1.818182
1.837732
1.808407
1.891496
1.827957
1.891496
1.871945
1.749756
2.047898
2.008798
1.940371
1.906158
1.964809
1.915934
1.813294
1.964809
1.876833
1.837732
1.808407
1.803519
1.735093
1.730205
1.749756
1.788856
1.769306
1.524927
0.752688
0.928641
3.675464
1.011730
3.333333
0.493646
1.549365
0.469208
0.840665
4.447703
4.618768
0.029326
2.306940
0.630499
0.532747
0.610948
1.397849
0.581623
1.173021
0.987292
0.562072
1.221896
0.092864
1.129032
3.533724
1.231672
0.762463
3.895406
4.780059
1.911046
4.853372
4.990225
4.965787
5.000000
4.496579
5.000000
4.990225
4.921799
5.000000
2.150538
3.670577
3.216031
2.517107
0.918866
1.358749
0.307918
3.509286
2.453568
0.283480
0.635386
0.767351
0.063539
0.009775
0.865103
0.043988
0.039101
0.019550
0.004888
0.000000
0.000000
0.782014
0.019550
0.000000
0.000000
0.000000
0.000000
0.000000
0.000000
0.000000
0.000000
0.000000
0.000000
0.000000
0.000000
0.000000
0.000000
0.000000
0.000000
0.210166
0.527859
1.109482
1.246334
1.515152
1.857283
2.277615
2.346041
1.686217
1.725318
4.154448
3.172043
3.103617
2.756598
3.963832
4.037146
4.281525
3.763441
4.931574
0.312805
4.912023
4.188661
3.880743
3.157380
4.491691
3.895406
3.856305
2.346041
4.784946
4.354839
2.653959
2.360704
2.047898
4.833822
2.869013
2.908113
2.678397
2.385142
2.385142
2.326491
2.316716
2.140762
1.979472
2.394917
2.458456
2.331378
2.487781
2.292278
2.546432
2.785924
4.120235
4.995112
4.995112
5.000000
5.000000
5.000000
5.000000
5.000000
0.000000
0.000000
4.897361
5.000000
4.995112
5.000000
0.141740
0.000000
0.000000
0.000000
0.000000
0.000000
0.000000
0.000000
0.200391
2.756598
3.382209
2.541544
1.290323
4.951124
4.921799
4.222874
2.008798
1.564027
0.224829
3.093842
1.813294
4.995112
4.985337
4.594330
4.496579
5.000000
3.567937
3.724340
4.882698
4.775171
4.912023
3.250244
4.051808
2.546432
1.280547
2.834800
1.109482
0.009775
0.000000
0.000000
0.000000
0.000000
0.000000
0.000000
0.000000
0.566960
1.304985
1.695992
1.319648
0.830890
0.219941
0.039101
0.635386
1.119257
1.089932
0.478983
1.417400
1.212121
1.221896
0.948192
1.485826
1.764418
0.953079
2.003910
1.603128
1.695992
1.989247
2.683284
1.940371
1.480938
2.028348
1.001955
1.896383
1.544477
1.217009
1.964809
1.979472
2.424242
2.419355
1.622678
1.427175
1.779081
0.855327
1.617791
1.603128
0.918866
1.725318
1.622678
1.129032
1.593353
2.399804
0.938416
1.476051
1.300098
0.957967
1.177908
2.160313
1.930596
1.363636
2.126100
2.238514
1.554252
0.723363
1.642229
1.950147
1.505376
1.691105
1.495601
0.909091
1.407625
1.290323
0.967742
1.505376
1.270772
0.972630
1.691105
1.397849
1.275660
1.871945
1.182796
1.495601
1.974585
2.228739
1.769306
1.402737
1.397849
2.018573
1.378299
1.564027
2.111437
1.725318
1.168133
1.505376
1.661779
1.251222
1.397849
3.646139
2.712610
2.043011
1.862170
1.300098
1.202346
3.675464
3.230694
1.231672
0.434995
0.640274
1.109482
0.576735
0.977517
1.793744
1.202346
1.598240
1.378299
1.686217
2.517107
2.473118
2.160313
2.424242
1.920821
1.456500
2.331378
2.399804
2.688172
1.681329
1.793744
1.300098
0.591398
0.889541
0.674487
0.361681
1.060606
0.840665
0.347019
1.060606
1.515152
0.503421
1.207234
0.933529
0.772239
1.544477
1.065494
0.904203
1.373412
1.490714
0.723363
1.480938
1.202346
1.114370
1.065494
1.759531
1.422287
0.654936
1.290323
1.402737
1.441838
0.987292
1.300098
0.884653
0.884653
1.402737
0.840665
1.334311
1.686217
0.879765
1.080156
2.111437
2.057674
1.520039
1.329423
1.608016
1.085044
0.728250
1.221896
1.173021
0.933529
1.290323
1.192571
0.982405
1.700880
1.133920
0.811339
1.671554
1.779081
1.270772
1.456500
1.979472
2.160313
1.568915
1.544477
1.417400
0.826002
1.446725
1.940371
1.798631
1.089932
2.160313
2.360704
2.380254
2.424242
1.295210
0.923754
0.855327
0.918866
1.050831
0.581623
0.806452
0.117302
2.243402
1.847507
0.376344
2.267840
1.666667
4.765396
4.956012
4.990225
4.960899
4.985337
4.965787
4.985337
4.970674
4.985337
4.965787
4.975562
4.990225
4.990225
4.985337
4.745846
4.213099
2.297165
0.444770
0.034213
0.000000
0.000000
0.000000
0.000000
0.000000
0.000000
0.000000
0.000000
0.000000
0.000000
0.000000
0.000000
0.000000
0.000000
0.000000
0.000000
0.000000
0.000000
0.000000
0.000000
0.000000
0.000000
0.000000
0.000000
0.000000
0.000000
0.000000
0.000000
0.000000
0.000000
0.000000
0.000000
0.000000
0.000000
0.000000
0.000000
0.000000
0.000000
0.000000
0.000000
0.000000
0.000000
0.000000
0.000000
0.000000
0.000000
0.000000
0.000000
0.000000
0.000000
0.000000
0.601173
0.087977
0.000000
0.000000
0.141740
0.205279
0.307918
0.777126
0.083089
0.092864
0.029326
0.004888
1.867058
2.898338
0.703812
2.497556
3.651026
0.606061
0.376344
3.949169
4.403715
4.569892
0.689150
2.311828
0.860215
2.727273
4.789834
3.836755
3.885630
2.971652
2.776149
2.668622
2.712610
2.492669
2.478006
2.473118
2.394917
2.385142
2.443793
2.463343
2.487781
2.551320
2.697947
2.693060
2.898338
2.981427
3.025415
3.020528
3.260020
3.118280
3.421310
3.128055
3.567937
3.406647
3.607038
3.519062
3.382209
3.152493
3.216031
3.548387
3.690127
3.690127
3.773216
3.817204
3.856305
4.149560
4.173998
4.110459
4.061584
4.173998
4.071359
4.134897
4.125122
4.115347
4.286413
4.232649
4.242424
4.217986
4.183773
4.257087
4.276637
4.384164
4.325513
4.266862
4.325513
4.296188
4.169110
4.252199
4.301075
4.271750
4.198436
4.173998
4.169110
4.169110
4.217986
4.159335
4.095797
4.071359
3.988270
3.968719
3.949169
3.890518
3.949169
3.978495
3.797654
3.763441
3.963832
3.836755
3.724340
3.739003
4.076246
3.421310
4.266862
4.276637
4.208211
3.284457
4.872923
4.760508
3.435973
1.432063
4.565005
2.204301
3.421310
4.032258
4.882698
3.592375
4.736070
3.699902
3.954057
3.978495
1.392962
4.726295
3.993157
1.290323
4.462366
4.374389
4.516129
4.946237
4.965787
4.980450
4.970674
4.985337
4.965787
4.970674
4.985337
4.990225
4.980450
4.965787
4.985337
4.985337
4.975562
4.960899
4.975562
4.990225
4.975562
4.975562
4.980450
4.985337
4.965787
4.985337
4.990225
4.995112
4.980450
4.965787
4.985337
4.990225
4.975562
4.970674
4.980450
4.828935
4.980450
4.965787
4.227761
4.936461
4.178886
4.051808
1.832845
2.976540
3.729228
2.126100
0.860215
3.582600
0.400782
1.774194
1.124145
3.646139
1.754643
0.527859
0.048876
2.282502
0.884653
0.254154
0.610948
0.019550
0.000000
0.918866
0.161290
0.117302
0.161290
0.004888
0.000000
0.000000
0.000000
0.004888
0.000000
0.000000
0.000000
0.000000
0.000000
0.000000
0.000000
0.068426
1.309873
1.392962
0.000000
0.000000
0.000000
0.000000
0.000000
0.000000
0.000000
0.000000
0.000000
0.000000
0.000000
0.000000
0.000000
0.000000
0.000000
0.000000
0.000000
0.000000
0.000000
0.000000
0.000000
0.000000
0.000000
0.000000
0.000000
0.000000
0.000000
0.000000
0.000000
0.000000
0.000000
0.000000
0.000000
0.000000
0.000000
0.000000
0.000000
0.000000
0.000000
0.000000
0.000000
0.000000
0.000000
0.000000
0.000000
0.000000
0.000000
0.000000
0.000000
0.000000
0.000000
0.000000
0.000000
0.000000
0.000000
0.000000
0.000000
0.000000
0.000000
0.000000
0.000000
0.000000
0.000000
0.000000
0.000000
0.000000
0.029326
0.317693
0.474096
0.581623
0.703812
0.918866
1.016618
1.182796
1.275660
1.505376
1.627566
1.681329
1.852395
1.906158
1.847507
2.052786
2.404692
2.302053
2.370479
2.106549
1.539589
1.319648
2.394917
4.056696
3.343109
2.531769
4.496579
2.003910
3.553275
3.685239
1.808407
3.152493
4.618768
4.608993
2.732160
1.324536
2.942326
4.833822
4.613881
4.946237
4.995112
4.980450
4.965787
4.985337
4.980450
4.985337
4.980450
4.985337
4.975562
4.975562
4.995112
4.980450
4.970674
4.985337
4.975562
4.975562
4.965787
4.970674
4.985337
4.980450
4.990225
4.970674
4.970674
4.985337
4.261975
4.946237
4.980450
4.965787
4.985337
4.437928
4.960899
4.980450
4.975562
4.726295
4.970674
4.706745
1.226784
2.922776
4.286413
2.937439
2.394917
2.453568
0.439883
3.035191
0.312805
1.001955
4.110459
3.147605
0.303030
0.019550
3.108504
0.307918
3.587488
1.148583
0.972630
0.043988
1.085044
0.244379
0.004888
0.000000
0.249267
0.009775
0.000000
0.386119
0.039101
0.000000
0.000000
0.000000
0.000000
0.000000
0.000000
0.000000
0.000000
0.000000
1.182796
4.086022
4.931574
4.970674
4.965787
4.164223
2.580645
1.231672
0.127077
0.009775
0.000000
0.000000
0.000000
0.000000
0.000000
0.000000
0.000000
0.000000
0.000000
0.000000
0.000000
0.000000
0.000000
0.000000
0.000000
0.000000
0.000000
0.000000
0.000000
0.000000
0.000000
0.000000
0.000000
0.000000
0.000000
0.000000
0.000000
0.000000
0.000000
0.000000
0.000000
0.000000
0.000000
0.000000
0.000000
0.000000
0.000000
0.000000
0.000000
0.000000
0.000000
0.000000
0.000000
0.000000
0.000000
0.000000
0.000000
0.000000
0.000000
0.000000
0.000000
0.000000
0.000000
0.000000
0.000000
0.000000
0.000000
0.000000
0.000000
0.048876
0.185728
0.347019
0.474096
0.791789
1.114370
1.119257
1.221896
1.803519
1.906158
2.096774
2.253177
2.693060
2.844575
3.010753
3.225806
3.367546
3.431085
3.621701
4.110459
4.169110
4.227761
4.340176
4.418377
4.608993
4.662757
4.858260
4.789834
4.931574
4.946237
4.980450
4.975562
4.990225
4.990225
4.975562
4.985337
4.965787
4.985337
4.960899
4.960899
4.985337
4.965787
4.990225
4.985337
4.980450
4.965787
4.740958
4.511241
3.235582
3.269795
4.892473
3.015640
4.828935
3.118280
3.607038
2.067449
3.030303
0.874878
3.313783
4.843597
3.558162
1.368524
1.901271
1.461388
1.529814
2.673509
1.163245
1.559140
1.715543
0.068426
3.382209
4.139785
2.414467
1.422287
0.469208
4.110459
4.975562
4.897361
4.951124
4.960899
4.980450
4.990225
4.995112
4.975562
4.985337
4.980450
4.985337
4.975562
4.980450
4.960899
4.985337
4.990225
4.965787
4.985337
4.980450
4.985337
4.975562
4.965787
4.965787
4.985337
4.960899
4.985337
1.739980
4.408602
4.144673
4.926686
3.831867
3.098729
4.907136
4.980450
4.975562
3.812317
1.608016
3.245357
4.125122
2.893451
4.877810
4.687195
4.789834
2.502444
2.590420
4.164223
4.770283
4.956012
1.388074
4.452590
3.944282
2.360704
4.305963
3.186706
4.501466
2.893451
1.036168
4.589443
3.382209
4.863148
2.590420
2.536657
3.186706
0.483871
4.086022
4.907136
1.891496
0.224829
0.459433
4.506354
1.099707
2.072336
1.798631
0.175953
0.899316
1.329423
2.717498
2.478006
1.466276
0.581623
0.034213
0.000000
0.000000
0.000000
0.000000
0.000000
0.000000
0.000000
0.000000
0.000000
0.000000
0.000000
0.000000
0.000000
0.000000
0.000000
0.000000
0.000000
0.000000
0.000000
0.000000
0.000000
0.000000
0.000000
0.000000
0.000000
0.000000
0.000000
0.000000
0.000000
0.000000
0.000000
0.000000
0.000000
0.000000
0.000000
0.000000
0.000000
0.000000
0.000000
0.000000
0.000000
0.000000
0.000000
0.000000
0.000000
0.000000
0.000000
0.000000
0.000000
0.000000
0.000000
0.000000
0.000000
0.000000
0.000000
0.000000
0.000000
0.000000
0.000000
0.000000
0.000000
0.000000
0.053763
0.259042
0.307918
0.684262
0.674487
0.723363
0.791789
0.913978
1.158358
1.304985
1.412512
1.392962
1.466276
1.583578
1.798631
1.906158
1.798631
2.023460
1.955034
2.179863
2.189638
2.341153
2.292278
2.267840
2.243402
1.691105
1.945259
1.520039
4.086022
4.931574
2.619746
0.904203
0.000000
0.000000
0.000000
0.000000
0.000000
0.000000
0.000000
0.000000
0.000000
0.000000
0.000000
0.000000
0.000000
0.000000
0.000000
0.000000
0.000000
0.000000
0.000000
0.000000
0.410557
1.280547
0.004888
2.487781
1.652004
1.207234
1.231672
4.965787
2.287390
2.409580
1.544477
3.787879
4.960899
4.985337
3.172043
2.448680
0.024438
1.334311
1.974585
2.991202
1.353861
1.304985
3.470186
3.729228
1.783969
0.400782
1.779081
0.171065
0.576735
0.943304
0.009775
1.779081
3.088954
4.012708
0.869990
1.490714
0.234604
4.995112
5.000000
5.000000
0.215054
0.000000
0.000000
0.000000
0.000000
0.000000
0.000000
0.000000
0.000000
0.000000
0.000000
0.000000
0.000000
0.000000
0.293255
0.004888
0.024438
3.225806
0.381232
4.164223
4.985337
3.841642
4.995112
5.000000
5.000000
5.000000
5.000000
5.000000
5.000000
5.000000
5.000000
5.000000
5.000000
4.506354
3.582600
4.990225
3.768328
1.300098
2.619746
0.747801
0.000000
0.000000
0.000000
0.000000
0.000000
0.000000
0.000000
0.000000
0.000000
0.000000
0.000000
2.727273
5.000000
5.000000
5.000000
5.000000
5.000000
5.000000
5.000000
5.000000
4.995112
4.467253
4.985337
5.000000
4.995112
4.995112
4.521017
0.361681
0.000000
0.000000
1.451613
2.580645
4.105572
4.902248
4.960899
4.960899
4.980450
4.995112
5.000000
5.000000
4.965787
4.990225
4.995112
4.990225
4.965787
4.965787
4.985337
4.965787
4.985337
4.965787
4.985337
4.975562
4.965787
4.985337
4.965787
4.965787
4.985337
4.965787
4.985337
4.990225
4.995112
4.985337
4.980450
4.980450
4.804497
4.354839
3.577713
4.213099
3.010753
3.304008
3.602151
3.152493
2.517107
3.098729
3.211144
2.575758
2.218964
2.272727
1.710655
2.409580
2.600196
2.414467
3.294233
2.605083
3.064516
3.313783
3.064516
3.651026
4.398827
3.597263
3.836755
4.457478
3.998045
3.905181
4.872923
4.980450
4.980450
4.980450
4.980450
4.965787
4.985337
4.965787
4.657869
3.460411
2.658847
1.417400
0.141740
0.000000
0.000000
0.000000
0.000000
0.000000
0.000000
0.000000
0.000000
0.000000
0.000000
0.000000
0.000000
0.000000
0.000000
0.000000
0.000000
0.000000
0.000000
0.000000
0.000000
0.000000
0.000000
0.000000
0.000000
0.000000
0.000000
0.000000
0.000000
0.000000
0.000000
0.000000
0.000000
0.000000
0.000000
0.000000
0.000000
0.000000
0.000000
0.000000
0.000000
0.000000
0.000000
0.000000
0.000000
0.000000
0.000000
0.000000
0.000000
0.000000
0.000000
0.000000
0.000000
0.000000
0.000000
0.000000
0.000000
0.000000
0.000000
0.000000
0.000000
0.454545
0.019550
0.000000
0.000000
0.366569
0.039101
0.239492
0.342131
0.283480
0.283480
1.168133
1.031281
0.127077
0.830890
2.209189
1.520039
1.637341
2.028348
0.659824
0.415445
2.238514
1.432063
2.688172
2.253177
0.175953
4.491691
1.099707
1.715543
0.347019
3.440860
3.401760
2.668622
1.006843
4.022483
0.464321
4.682307
3.064516
2.922776
2.350929
0.718475
0.229717
4.648094
4.257087
4.032258
0.615836
0.405670
2.086999
3.597263
4.863148
3.054741
4.389052
0.596285
2.888563
2.810362
3.655914
4.877810
4.232649
0.327468
4.296188
4.936461
4.550342
4.437928
2.502444
3.103617
2.697947
3.343109
2.825024
2.702835
2.634409
2.590420
2.507331
2.624633
2.551320
2.497556
2.502444
2.492669
2.531769
2.468231
2.658847
2.629521
2.663734
2.609971
2.976540
3.093842
2.859238
2.961877
3.074291
3.230694
2.991202
3.391984
3.426197
3.470186
3.396872
3.636364
3.660802
3.699902
3.651026
3.440860
3.729228
3.812317
3.787879
3.826979
3.792766
3.807429
3.743891
3.773216
3.714565
3.695015
3.651026
3.841642
3.729228
3.680352
3.734115
3.611926
3.646139
3.558162
3.465298
3.553275
3.577713
3.543500
3.450635
3.494624
3.455523
3.367546
3.372434
3.347996
3.299120
3.328446
3.264907
3.269795
3.260020
3.157380
3.382209
3.176931
3.157380
3.088954
3.123167
3.044966
3.157380
3.074291
3.030303
2.898338
3.098729
2.971652
2.952102
2.878788
2.869013
2.756598
2.815249
2.834800
2.771261
2.639296
2.873900
2.565982
1.779081
1.808407
2.829912
3.035191
3.597263
3.460411
2.008798
2.414467
2.336266
2.502444
4.863148
4.863148
3.651026
0.586510
1.568915
3.861193
4.613881
3.279570
2.287390
2.375367
2.033236
4.105572
1.564027
1.231672
3.978495
4.261975
3.030303
0.537634
0.043988
4.066471
3.084066
3.049853
0.669599
0.698925
3.235582
1.647116
3.255132
1.368524
0.630499
2.258065
2.971652
1.593353
1.138807
1.739980
2.678397
2.751711
2.160313
1.480938
2.766373
1.011730
4.066471
0.483871
1.441838
1.344086
2.790811
3.807429
1.138807
0.136852
3.357771
0.635386
0.723363
3.763441
4.335288
2.336266
0.298143
0.928641
1.867058
0.596285
4.330401
1.994135
0.840665
2.170088
0.141740
4.496579
1.955034
1.348974
0.112414
0.439883
1.906158
1.911046
1.554252
4.481916
1.783969
0.127077
0.014663
3.044966
4.159335
2.614858
3.167155
1.779081
0.835777
0.034213
3.172043
0.835777
0.894428
0.943304
0.117302
1.656891
0.967742
0.606061
0.522972
0.469208
0.259042
0.229717
0.136852
0.068426
0.004888
0.000000
0.259042
0.185728
0.342131
0.268817
0.180841
0.395894
0.293255
0.249267
0.254154
0.483871
0.391007
0.650049
0.659824
0.664712
0.757576
0.982405
1.212121
1.803519
2.057674
2.663734
3.108504
3.582600
4.159335
4.902248
4.975562
4.975562
4.965787
4.970674
4.990225
4.975562
4.965787
4.965787
4.965787
4.985337
4.965787
4.985337
4.990225
4.965787
4.985337
4.965787
4.965787
4.985337
4.965787
4.990225
4.965787
4.970674
4.985337
4.975562
4.965787
4.965787
4.985337
4.970674
4.985337
4.975562
4.985337
4.975562
4.965787
4.965787
4.946237
4.437928
3.978495
3.768328
3.592375
3.387097
2.829912
2.429130
1.783969
1.304985
0.713587
0.508309
0.175953
0.014663
0.000000
0.000000
0.000000
0.000000
0.000000
0.000000
0.000000
0.000000
0.000000
0.000000
0.000000
0.000000
0.000000
0.000000
0.000000
0.000000
0.000000
0.000000
0.000000
0.000000
0.000000
0.000000
0.000000
0.000000
0.000000
0.000000
0.000000
0.000000
0.000000
0.254154
0.000000
0.967742
0.034213
0.000000
0.000000
0.000000
0.000000
0.000000
0.000000
0.000000
0.000000
0.000000
0.000000
0.000000
0.000000
0.000000
0.000000
0.000000
0.000000
0.000000
0.000000
0.000000
0.000000
0.000000
0.000000
0.000000
0.000000
0.000000
0.000000
0.000000
0.000000
0.000000
0.000000
0.087977
0.000000
0.000000
0.000000
0.000000
0.000000
0.000000
0.000000
0.000000
0.000000
0.000000
0.000000
0.000000
0.000000
0.000000
0.000000
0.000000
1.783969
0.552297
0.039101
0.000000
0.019550
0.557185
1.925709
1.862170
0.278592
0.014663
0.879765
0.078201
1.940371
3.377322
1.392962
0.391007
0.019550
0.219941
3.157380
0.386119
0.904203
0.884653
2.507331
3.206256
1.368524
2.482893
2.091887
0.982405
2.199413
0.376344
4.183773
0.439883
3.675464
2.922776
0.806452
0.620723
3.470186
3.142717
2.018573
2.243402
1.896383
1.823069
1.974585
1.984360
1.700880
1.598240
1.515152
1.275660
1.041056
0.811339
0.698925
0.601173
0.503421
0.366569
0.239492
0.244379
0.263930
0.210166
0.434995
0.395894
0.405670
0.610948
0.728250
0.889541
1.124145
1.148583
1.163245
1.353861
1.456500
1.529814
1.617791
1.744868
2.033236
2.214076
2.228739
2.297165
2.404692
2.546432
2.653959
2.653959
2.932551
2.956989
3.059629
3.123167
3.220919
3.445748
3.636364
4.022483
4.257087
4.565005
4.814272
4.970674
4.970674
4.980450
4.975562
4.985337
4.965787
4.985337
4.985337
4.990225
4.985337
4.995112
4.990225
4.965787
4.990225
4.980450
4.995112
4.975562
4.965787
4.985337
4.965787
4.965787
4.985337
4.965787
4.985337
4.990225
4.970674
4.965787
4.985337
4.965787
4.985337
4.965787
4.985337
4.980450
4.985337
4.985337
4.985337
4.975562
4.970674
4.985337
4.965787
4.980450
4.990225
4.985337
4.965787
4.736070
4.452590
3.900293
3.465298
3.191593
2.624633
1.344086
1.251222
0.469208
0.415445
0.493646
0.063539
0.000000
0.000000
0.000000
0.000000
1.392962
0.063539
0.347019
0.053763
0.004888
1.348974
0.386119
0.029326
2.350929
0.288368
0.014663
0.000000
0.000000
0.000000
0.039101
0.000000
0.000000
0.000000
0.000000
0.000000
0.000000
0.000000
0.000000
0.000000
0.000000
0.000000
0.000000
0.000000
0.000000
0.000000
0.000000
0.000000
0.000000
0.000000
0.000000
0.000000
0.146628
0.215054
0.004888
0.307918
0.009775
1.974585
2.390029
1.080156
4.330401
2.531769
0.879765
4.584555
3.582600
4.511241
4.149560
3.318671
3.563050
3.895406
2.003910
4.848485
4.652981
2.277615
3.885630
2.145650
1.930596
4.496579
1.930596
3.519062
3.504399
0.620723
1.001955
4.017595
0.483871
2.365591
2.209189
1.050831
1.803519
0.312805
3.103617
0.298143
1.158358
1.608016
0.865103
0.029326
0.000000
0.571848
0.224829
0.953079
0.039101
0.000000
0.000000
1.739980
0.312805
0.009775
0.029326
0.000000
0.000000
0.000000
0.298143
0.019550
0.000000
0.000000
0.000000
0.000000
0.000000
0.000000
0.000000
0.000000
0.000000
0.000000
0.000000
0.000000
0.000000
0.000000
0.000000
0.000000
0.000000
0.000000
0.000000
0.000000
0.000000
0.000000
0.000000
0.000000
0.000000
0.000000
0.000000
0.034213
0.151515
0.229717
0.356794
0.459433
0.669599
0.786901
0.884653
0.962854
1.153470
1.422287
1.456500
1.539589
1.661779
1.744868
1.774194
1.867058
2.018573
2.062561
2.150538
2.228739
2.341153
2.590420
2.683284
2.600196
2.658847
2.673509
2.746823
2.717498
2.859238
2.825024
3.074291
3.069404
3.040078
2.947214
3.030303
3.084066
3.040078
3.010753
3.206256
3.157380
3.137830
3.079179
3.230694
3.181818
3.318671
3.201369
3.240469
3.328446
3.264907
3.255132
3.235582
3.308895
3.308895
3.352884
3.269795
3.269795
3.328446
3.255132
3.338221
3.323558
3.284457
3.162268
3.176931
3.274682
3.211144
3.279570
3.216031
3.294233
3.250244
3.157380
3.191593
3.005865
3.318671
2.663734
4.105572
3.499511
4.037146
0.645161
3.499511
1.564027
1.485826
2.443793
4.413490
4.926686
3.709677
0.337243
3.440860
2.825024
3.088954
3.577713
2.404692
4.799609
3.064516
4.237537
0.767351
2.424242
3.714565
4.667644
2.629521
4.144673
4.379277
1.265885
2.018573
4.848485
3.313783
1.764418
2.570870
2.179863
4.100684
3.479961
0.454545
3.748778
2.697947
3.993157
0.552297
2.952102
3.162268
1.862170
1.407625
4.491691
1.221896
1.280547
2.018573
4.706745
2.214076
3.435973
1.827957
0.224829
4.276637
2.873900
1.637341
2.209189
2.741935
0.865103
3.377322
2.487781
1.309873
3.900293
2.859238
0.425220
3.318671
1.920821
2.150538
4.740958
1.177908
0.078201
2.306940
3.113392
2.243402
1.202346
1.529814
0.547410
2.771261
2.810362
2.262952
1.969697
1.808407
0.068426
4.027370
3.372434
2.873900
2.497556
0.395894
2.091887
4.418377
1.202346
3.817204
0.889541
1.476051
3.064516
2.448680
1.754643
1.759531
1.808407
1.735093
1.769306
1.774194
1.769306
1.754643
1.749756
1.735093
1.793744
1.774194
1.695992
1.642229
1.652004
1.666667
1.608016
1.583578
1.622678
1.573803
1.627566
1.578690
1.578690
1.583578
1.539589
1.573803
1.510264
1.559140
1.446725
1.485826
1.520039
1.539589
1.505376
1.583578
1.539589
1.485826
1.495601
0.029326
4.110459
0.053763
0.894428
0.092864
0.703812
4.418377
3.015640
4.824047
2.717498
0.464321
4.007820
0.723363
4.296188
0.444770
3.582600
3.289345
1.881720
0.493646
3.489736
0.068426
1.344086
0.166178
4.398827
1.598240
0.249267
4.217986
1.344086
2.453568
1.060606
0.014663
2.497556
1.104594
1.011730
1.075269
0.826002
0.742913
0.782014
0.845552
0.899316
0.972630
1.001955
1.275660
1.300098
1.226784
2.834800
3.729228
2.732160
3.147605
3.577713
3.631476
0.772239
0.884653
3.035191
4.433040
1.011730
1.598240
0.757576
0.860215
1.031281
0.987292
1.021505
0.889541
1.182796
1.373412
1.593353
1.779081
1.549365
1.798631
2.262952
4.985337
5.000000
5.000000
5.000000
5.000000
5.000000
5.000000
5.000000
3.993157
3.206256
2.458456
1.622678
0.845552
2.609971
1.129032
0.000000
0.000000
0.000000
0.000000
0.000000
0.000000
0.000000
0.000000
0.000000
2.551320
2.414467
1.119257
1.471163
1.334311
1.265885
1.202346
1.241447
1.197458
1.251222
1.148583
1.212121
1.304985
1.324536
1.309873
1.251222
1.246334
1.109482
1.319648
1.246334
1.104594
1.202346
1.182796
1.138807
1.173021
1.226784
1.187683
1.241447
1.153470
1.163245
1.339198
1.256109
1.177908
1.114370
1.212121
1.094819
1.177908
1.168133
1.138807
1.197458
1.089932
1.182796
1.129032
1.031281
1.129032
1.080156
1.089932
1.099707
1.055718
1.021505
1.021505
1.129032
1.055718
1.133920
1.094819
1.114370
1.158358
0.982405
1.182796
1.124145
1.119257
1.192571
1.138807
1.070381
1.104594
1.251222
1.050831
1.080156
1.158358
1.055718
1.148583
1.075269
1.031281
1.163245
1.075269
1.133920
1.089932
1.036168
1.153470
1.133920
0.962854
1.192571
1.036168
1.119257
1.080156
1.207234
1.163245
1.099707
1.104594
0.992180
1.143695
1.001955
1.207234
1.173021
1.129032
1.119257
1.075269
1.011730
1.016618
0.738025
1.182796
1.373412
1.368524
1.260997
1.041056
0.107527
0.014663
0.361681
1.446725
2.546432
2.394917
1.827957
0.371457
1.050831
0.884653
2.668622
3.157380
1.681329
0.982405
0.039101
2.487781
2.737048
3.206256
1.661779
0.904203
0.527859
1.363636
0.332356
1.065494
1.642229
1.994135
1.085044
0.718475
0.268817
2.106549
1.236559
2.008798
0.381232
1.001955
1.016618
1.466276
0.131965
2.619746
1.060606
1.202346
1.026393
1.163245
1.055718
0.918866
1.124145
1.549365
1.676442
1.177908
0.601173
1.534702
1.476051
0.796676
0.845552
0.953079
1.720430
1.143695
1.187683
1.847507
1.055718
0.503421
1.915934
1.348974
1.392962
1.422287
0.752688
1.392962
1.744868
1.085044
1.598240
0.474096
0.552297
2.204301
1.578690
0.777126
1.363636
0.532747
1.994135
0.811339
1.984360
1.290323
1.666667
1.661779
1.422287
1.124145
1.055718
0.899316
0.664712
0.254154
0.552297
1.652004
0.923754
1.094819
1.246334
1.119257
0.977517
0.884653
0.879765
1.295210
1.133920
1.089932
0.987292
1.036168
1.275660
1.173021
1.085044
1.050831
0.987292
1.202346
1.226784
1.309873
1.466276
1.260997
1.353861
1.270772
1.417400
1.427175
1.388074
1.427175
1.290323
1.564027
1.700880
1.559140
1.456500
1.388074
1.392962
1.754643
1.559140
1.632454
1.373412
1.749756
1.647116
1.549365
1.427175
1.627566
1.632454
1.520039
1.520039
1.769306
1.647116
1.446725
1.637341
1.480938
1.666667
1.695992
1.637341
1.559140
1.637341
1.578690
1.461388
1.661779
1.544477
1.544477
1.627566
1.642229
1.422287
1.588465
1.564027
1.554252
1.554252
1.622678
1.485826
1.598240
1.622678
1.568915
1.710655
1.622678
1.485826
1.637341
1.661779
1.461388
1.544477
1.578690
1.417400
1.779081
1.632454
1.490714
1.637341
1.661779
1.564027
1.588465
1.510264
1.471163
1.544477
1.818182
1.593353
1.715543
1.568915
1.593353
1.466276
1.627566
1.436950
1.652004
1.583578
1.642229
1.490714
1.676442
1.588465
1.476051
1.212121
1.769306
1.749756
1.617791
1.549365
1.466276
1.505376
1.251222
1.026393
0.869990
0.122190
1.075269
1.739980
4.305963
2.927664
1.138807
0.361681
0.718475
0.508309
1.099707
3.963832
4.726295
3.211144
0.562072
3.172043
1.637341
1.329423
2.624633
2.849462
2.502444
1.534702
1.803519
2.145650
1.739980
2.570870
0.239492
3.088954
1.979472
0.845552
1.407625
1.793744
1.226784
1.520039
1.769306
0.650049
0.928641
1.940371
1.089932
0.703812
1.466276
2.697947
0.317693
2.771261
1.109482
1.769306
0.816227
1.485826
1.070381
1.319648
1.700880
1.446725
0.537634
3.118280
1.920821
0.615836
0.796676
1.862170
1.847507
1.290323
0.987292
1.691105
0.689150
1.749756
1.769306
1.070381
0.195503
2.991202
1.368524
2.082111
2.414467
0.635386
0.400782
2.370479
2.091887
1.397849
0.464321
1.324536
1.823069
1.788856
1.119257
1.006843
1.417400
0.171065
2.111437
2.355816
2.834800
2.331378
0.224829
2.600196
0.869990
1.129032
0.371457
3.900293
3.054741
1.813294
1.652004
1.715543
1.241447
1.212121
1.104594
0.987292
1.021505
1.011730
1.168133
1.143695
1.089932
1.050831
1.070381
0.933529
0.928641
1.236559
1.168133
1.153470
1.065494
1.104594
1.006843
0.982405
1.006843
1.070381
0.987292
1.241447
1.045943
1.119257
1.251222
1.070381
1.021505
0.948192
0.977517
1.197458
1.319648
1.436950
1.544477
1.715543
1.647116
1.612903
1.520039
1.549365
1.695992
1.827957
1.798631
1.823069
1.788856
1.476051
1.871945
1.779081
1.774194
1.730205
1.676442
1.901271
2.077224
1.950147
1.779081
1.803519
1.788856
1.891496
1.759531
1.930596
1.994135
1.779081
1.852395
1.935484
1.823069
1.823069
1.955034
1.871945
1.793744
1.676442
2.033236
1.925709
1.857283
1.823069
1.749756
1.901271
1.808407
1.769306
1.559140
1.906158
1.979472
1.871945
1.871945
1.871945
1.759531
1.945259
1.896383
1.769306
1.735093
1.779081
1.715543
1.739980
1.783969
1.705767
1.925709
1.656891
1.959922
1.798631
1.681329
1.241447
0.899316
0.312805
0.322581
2.130987
4.017595
4.657869
2.341153
0.742913
0.469208
0.860215
0.317693
4.428152
4.320626
4.188661
0.865103
1.808407
2.174976
2.292278
2.360704
0.796676
4.393939
1.989247
2.370479
1.280547
2.771261
1.260997
1.617791
1.847507
3.880743
0.376344
2.414467
2.106549
0.229717
2.575758
1.652004
1.656891
1.637341
0.249267
2.585533
3.235582
1.867058
2.316716
1.397849
0.131965
2.585533
1.226784
2.634409
0.879765
1.368524
2.096774
0.342131
0.488759
1.202346
2.996090
0.464321
3.040078
1.852395
3.157380
2.277615
0.278592
2.341153
1.207234
1.045943
1.368524
1.783969
0.532747
0.381232
1.515152
1.969697
2.864125
2.443793
0.464321
0.757576
3.607038
0.498534
1.720430
4.389052
2.473118
0.943304
1.358749
0.645161
1.436950
2.702835
1.715543
2.693060
1.520039
0.977517
0.083089
3.079179
1.050831
1.955034
1.251222
0.860215
1.050831
1.348974
1.089932
0.948192
0.933529
0.948192
0.972630
0.874878
1.001955
1.177908
1.207234
1.182796
1.060606
1.221896
0.967742
1.334311
1.050831
1.099707
1.197458
0.987292
1.334311
1.177908
1.241447
1.363636
1.304985
1.368524
1.329423
1.153470
1.402737
1.344086
1.647116
1.700880
1.456500
1.603128
1.700880
1.720430
1.661779
1.656891
1.490714
1.906158
1.867058
1.818182
1.867058
2.057674
1.930596
1.847507
1.818182
1.642229
2.023460
1.974585
1.867058
1.730205
1.901271
1.920821
1.720430
2.101662
1.940371
1.852395
1.827957
1.930596
1.984360
1.881720
1.867058
1.798631
1.686217
1.940371
1.964809
2.038123
1.857283
1.915934
1.837732
2.135875
1.901271
1.671554
1.994135
1.779081
2.013685
2.047898
1.911046
1.857283
1.798631
1.720430
1.544477
2.018573
1.744868
1.896383
1.891496
1.720430
1.999022
1.622678
1.617791
2.111437
2.033236
1.495601
1.314761
1.065494
2.878788
2.697947
2.057674
1.456500
4.623656
3.318671
4.164223
0.845552
0.850440
4.696970
3.176931
0.679374
3.416422
1.016618
3.988270
1.114370
3.465298
1.955034
0.562072
1.827957
0.987292
2.741935
0.454545
3.699902
1.485826
3.352884
2.194526
1.564027
1.432063
0.131965
1.246334
3.514174
3.382209
1.832845
2.170088
1.798631
0.483871
3.641251
1.515152
2.800587
1.319648
1.026393
0.884653
2.258065
0.444770
2.878788
2.116325
2.937439
2.722385
0.630499
0.019550
4.281525
2.497556
1.236559
0.830890
1.119257
1.016618
2.776149
1.598240
1.089932
3.000978
0.283480
3.807429
3.621701
0.469208
2.067449
0.869990
2.414467
2.018573
3.753666
0.464321
0.615836
0.444770
1.725318
3.113392
2.546432
3.118280
0.249267
1.060606
1.221896
1.906158
3.641251
2.038123
2.350929
0.171065
3.563050
1.911046
1.334311
1.368524
1.231672
1.089932
1.158358
1.011730
0.943304
0.884653
0.889541
0.957967
0.855327
0.826002
0.850440
0.826002
0.850440
0.684262
0.894428
0.923754
0.967742
0.752688
1.412512
1.182796
1.251222
1.187683
1.207234
1.251222
1.226784
1.309873
1.436950
1.275660
1.534702
1.441838
1.417400
1.441838
1.363636
1.622678
1.627566
1.578690
1.691105
1.710655
1.612903
1.901271
1.852395
1.808407
1.823069
1.774194
1.749756
1.720430
1.720430
1.964809
1.876833
1.852395
1.632454
1.955034
1.847507
1.871945
2.028348
1.886608
1.813294
1.715543
1.871945
1.906158
1.813294
1.832845
1.774194
2.043011
1.930596
1.823069
1.837732
1.959922
2.018573
1.876833
1.827957
1.979472
2.008798
1.906158
1.827957
1.837732
2.194526
1.920821
1.827957
1.627566
2.008798
1.867058
1.847507
1.749756
1.950147
1.999022
1.837732
1.803519
1.774194
1.783969
2.077224
1.871945
1.847507
1.945259
2.077224
1.901271
1.813294
1.739980
1.788856
1.735093
2.013685
1.827957
1.886608
1.764418
1.999022
1.774194
1.759531
1.842620
1.666667
1.974585
1.744868
1.759531
1.999022
1.050831
2.727273
1.045943
0.097752
1.011730
0.068426
1.876833
4.384164
3.919844
3.460411
2.135875
2.614858
3.230694
4.017595
1.578690
3.435973
2.639296
1.906158
1.891496
3.523949
1.598240
3.607038
1.138807
1.129032
2.258065
2.600196
2.815249
0.347019
0.386119
3.724340
4.037146
1.065494
2.018573
1.021505
3.729228
0.332356
1.632454
1.759531
1.754643
4.599218
0.948192
0.034213
3.294233
2.859238
1.881720
3.440860
0.322581
1.055718
0.498534
4.134897
0.957967
3.206256
1.632454
1.055718
0.405670
2.023460
1.207234
3.611926
2.673509
1.373412
0.112414
2.390029
0.625611
3.621701
3.084066
0.977517
0.195503
1.129032
0.610948
3.802542
0.513196
2.898338
0.777126
0.351906
3.137830
0.498534
3.367546
1.730205
0.645161
1.715543
0.806452
0.957967
2.898338
3.015640
0.469208
2.512219
2.937439
0.303030
0.972630
0.987292
1.397849
1.827957
1.490714
2.732160
1.955034
1.300098
0.957967
0.869990
0.948192
2.023460
0.684262
0.982405
1.055718
1.432063
0.894428
1.241447
1.065494
1.026393
0.977517
0.835777
1.182796
1.236559
1.353861
1.441838
1.329423
1.260997
1.417400
1.500489
1.207234
1.070381
1.231672
1.241447
1.109482
0.884653
0.845552
1.011730
0.806452
1.417400
1.339198
1.265885
1.314761
1.275660
1.295210
1.231672
1.378299
1.661779
1.598240
1.490714
1.549365
1.559140
1.671554
1.700880
1.915934
1.994135
1.749756
1.847507
1.808407
1.744868
1.769306
1.827957
1.823069
2.008798
1.955034
1.813294
1.974585
2.111437
1.969697
1.901271
1.827957
1.813294
2.101662
1.930596
1.871945
1.930596
1.896383
1.886608
1.783969
1.955034
2.013685
1.603128
2.311828
2.282502
1.994135
1.788856
1.847507
1.955034
1.862170
1.642229
2.008798
1.979472
1.867058
1.725318
1.974585
1.876833
1.847507
1.407625
1.955034
1.847507
1.930596
1.940371
1.896383
1.842620
1.852395
1.735093
1.871945
1.656891
1.999022
2.043011
1.847507
1.788856
1.715543
1.852395
1.847507
1.666667
1.710655
1.153470
1.402737
1.989247
2.746823
2.541544
2.575758
0.894428
1.612903
1.832845
2.971652
0.694037
0.092864
0.102639
4.046921
3.958944
2.272727
3.093842
3.968719
1.436950
0.127077
4.477028
4.305963
1.021505
0.263930
4.472141
0.733138
4.325513
1.168133
1.383187
1.808407
2.458456
1.373412
2.350929
0.136852
0.806452
1.075269
3.958944
0.997067
3.181818
1.466276
2.737048
0.821114
0.821114
4.242424
1.344086
0.356794
1.402737
1.016618
1.236559
2.766373
3.406647
2.712610
0.259042
3.372434
2.248289
3.264907
1.603128
0.522972
2.536657
1.368524
2.038123
0.865103
3.123167
1.627566
0.415445
2.204301
2.556207
2.321603
2.829912
1.388074
1.177908
4.134897
3.059629
0.483871
1.661779
0.957967
2.463343
1.065494
2.502444
2.277615
0.601173
3.914956
0.391007
0.782014
0.420332
2.966764
2.184751
0.718475
0.068426
3.294233
2.043011
0.376344
2.062561
0.464321
2.722385
0.322581
1.041056
1.124145
0.948192
1.231672
0.997067
0.904203
0.894428
0.933529
0.938416
0.943304
1.001955
0.982405
1.104594
1.182796
1.265885
1.241447
1.212121
1.285435
1.099707
1.177908
1.133920
1.026393
1.158358
1.168133
1.187683
1.026393
0.894428
1.080156
1.089932
1.285435
1.231672
1.080156
1.554252
1.304985
1.226784
1.221896
1.314761
1.324536
1.461388
1.554252
1.588465
1.617791
1.920821
1.857283
1.857283
1.906158
1.837732
1.686217
2.018573
1.852395
1.720430
1.813294
1.886608
1.774194
2.008798
1.896383
1.774194
1.871945
1.925709
1.896383
1.950147
1.720430
2.111437
1.959922
1.862170
2.116325
1.964809
1.803519
1.959922
1.749756
2.023460
1.979472
2.077224
1.945259
1.867058
1.710655
1.886608
1.930596
1.891496
1.906158
1.705767
1.979472
1.969697
1.891496
1.989247
1.818182
1.813294
1.744868
1.959922
1.881720
2.033236
1.862170
1.827957
1.857283
1.940371
1.827957
1.143695
0.518084
1.632454
1.505376
2.864125
0.606061
2.805474
0.449658
4.525904
3.162268
2.605083
2.658847
3.758553
2.350929
2.649071
1.099707
2.644184
3.753666
1.886608
0.679374
3.137830
4.511241
3.201369
1.344086
1.300098
3.621701
0.371457
0.439883
2.204301
3.900293
1.363636
2.033236
1.280547
0.312805
0.869990
4.457478
1.300098
1.691105
0.782014
0.043988
2.927664
1.089932
1.881720
4.134897
3.978495
0.459433
2.302053
