1.671554
1.715543
1.691105
1.700880
1.725318
1.730205
1.686217
1.666667
1.700880
1.695992
1.671554
1.691105
1.666667
1.695992
1.695992
1.681329
1.661779
1.676442
1.666667
1.652004
1.686217
1.695992
1.705767
1.705767
1.691105
1.695992
1.710655
1.686217
1.695992
1.705767
1.695992
1.666667
1.671554
1.686217
1.671554
1.652004
1.671554
1.671554
1.656891
1.681329
1.661779
1.661779
1.700880
1.686217
1.681329
1.686217
1.652004
1.681329
1.666667
1.676442
1.671554
1.656891
1.656891
1.656891
1.725318
1.695992
1.652004
1.647116
1.671554
1.637341
1.637341
1.666667
1.647116
1.647116
1.652004
1.637341
1.544477
1.705767
1.686217
1.656891
1.661779
1.686217
1.691105
1.441838
1.158358
0.454545
0.552297
1.544477
0.782014
2.878788
0.899316
1.984360
2.556207
0.698925
2.624633
0.972630
2.678397
2.155425
2.126100
1.392962
2.140762
1.598240
1.891496
2.204301
1.471163
2.116325
0.967742
2.478006
1.456500
2.052786
1.598240
1.857283
1.979472
1.329423
1.109482
1.314761
1.950147
2.028348
1.930596
1.681329
0.943304
1.554252
2.047898
1.730205
1.407625
1.304985
2.052786
2.189638
1.940371
1.471163
0.850440
2.556207
1.935484
1.783969
1.388074
1.270772
2.047898
1.955034
2.248289
0.874878
1.534702
1.358749
1.920821
2.013685
1.182796
2.272727
2.463343
1.876833
1.994135
1.129032
1.417400
2.145650
1.520039
1.832845
1.842620
1.989247
1.378299
1.876833
1.661779
1.075269
2.077224
1.304985
0.987292
2.228739
1.275660
1.940371
1.441838
2.101662
1.534702
1.544477
1.642229
1.945259
1.309873
1.456500
1.652004
0.723363
2.639296
1.735093
1.534702
1.148583
1.495601
1.329423
1.559140
2.043011
1.578690
0.650049
2.150538
1.608016
1.397849
2.096774
1.637341
1.915934
1.710655
1.725318
1.524927
1.568915
1.769306
1.427175
1.725318
1.588465
1.476051
2.277615
1.671554
1.016618
2.111437
1.842620
1.612903
1.661779
1.798631
1.935484
1.720430
1.955034
1.803519
1.549365
1.515152
1.818182
1.353861
1.847507
1.744868
1.598240
1.700880
1.466276
1.593353
1.999022
1.656891
1.217009
2.116325
1.358749
2.282502
1.652004
2.008798
0.733138
1.520039
1.999022
2.121212
1.485826
0.684262
1.915934
1.480938
1.818182
1.471163
1.774194
1.476051
1.637341
1.710655
1.666667
2.179863
1.857283
1.515152
1.265885
1.871945
1.661779
1.725318
1.329423
1.730205
2.028348
1.187683
2.150538
1.304985
1.779081
1.852395
1.847507
1.705767
1.564027
1.041056
2.194526
2.209189
2.126100
1.788856
1.539589
2.272727
1.588465
1.798631
1.959922
1.446725
2.218964
1.876833
1.632454
1.832845
1.358749
1.407625
1.339198
1.466276
2.038123
1.422287
1.818182
1.818182
1.578690
1.720430
1.588465
2.043011
1.471163
2.267840
1.075269
1.876833
1.710655
1.593353
2.008798
1.397849
1.764418
1.500489
1.989247
1.500489
1.798631
1.221896
2.306940
1.466276
1.896383
1.847507
1.505376
0.918866
2.385142
1.099707
1.710655
1.955034
1.436950
1.432063
2.130987
1.583578
1.671554
1.461388
1.730205
1.241447
1.348974
2.116325
1.583578
1.500489
1.876833
1.559140
1.754643
1.779081
1.300098
2.052786
1.495601
1.959922
1.695992
1.285435
1.984360
0.850440
2.311828
1.779081
1.666667
1.554252
1.001955
2.028348
1.612903
1.241447
1.813294
1.754643
1.427175
1.603128
1.652004
1.632454
1.647116
1.891496
1.593353
1.432063
1.461388
1.192571
2.170088
1.695992
1.744868
1.524927
1.412512
1.788856
1.256109
1.798631
1.368524
1.529814
1.588465
1.544477
1.432063
2.028348
2.253177
1.891496
1.119257
2.023460
1.920821
1.930596
1.715543
1.549365
2.556207
1.935484
1.911046
1.617791
1.510264
1.285435
1.182796
1.656891
1.656891
2.346041
1.456500
1.769306
1.510264
2.463343
1.920821
1.945259
2.072336
1.969697
1.739980
1.221896
2.101662
1.309873
1.935484
2.047898
1.608016
1.549365
1.969697
1.549365
1.070381
1.275660
1.959922
1.876833
1.725318
1.661779
1.427175
1.945259
1.270772
1.700880
1.568915
1.534702
1.964809
1.505376
1.480938
1.803519
1.969697
1.847507
0.874878
1.559140
1.906158
2.023460
1.720430
1.476051
1.515152
2.047898
1.798631
1.666667
1.314761
2.072336
1.637341
1.764418
1.549365
1.911046
1.573803
1.813294
1.730205
1.808407
1.656891
1.495601
1.515152
1.251222
1.564027
1.559140
1.695992
1.969697
1.950147
1.549365
1.730205
1.920821
1.627566
1.798631
1.055718
1.539589
1.935484
1.177908
1.353861
2.121212
1.329423
1.847507
1.588465
1.632454
0.884653
2.047898
1.612903
2.174976
1.031281
2.140762
1.280547
1.744868
1.857283
1.520039
1.862170
1.226784
1.945259
1.568915
1.348974
1.881720
1.695992
1.529814
1.857283
1.955034
1.627566
1.441838
1.827957
2.170088
1.534702
2.003910
1.402737
1.813294
1.906158
1.441838
1.940371
1.471163
1.583578
1.774194
1.129032
1.832845
1.754643
1.744868
1.739980
1.686217
1.368524
1.871945
1.876833
1.187683
1.896383
1.612903
1.397849
1.774194
1.627566
1.725318
1.627566
1.564027
1.759531
1.500489
1.754643
1.632454
1.348974
1.744868
1.617791
1.363636
1.632454
1.583578
1.915934
1.515152
1.344086
1.906158
1.363636
2.086999
1.666667
1.568915
1.608016
1.324536
2.150538
1.358749
1.920821
1.446725
1.774194
1.725318
1.691105
1.754643
1.603128
1.818182
1.911046
1.891496
1.969697
1.857283
1.842620
1.769306
2.013685
1.534702
2.091887
1.979472
1.114370
1.588465
2.174976
1.432063
2.043011
1.422287
1.432063
1.471163
1.241447
2.155425
1.275660
1.344086
1.783969
1.632454
1.754643
2.126100
1.554252
0.977517
2.165200
1.534702
1.735093
1.705767
1.656891
1.681329
1.476051
1.749756
1.744868
1.407625
1.793744
1.568915
1.554252
1.583578
1.490714
1.862170
1.647116
1.417400
1.642229
1.896383
1.446725
1.847507
1.217009
1.959922
1.471163
1.999022
1.681329
1.422287
1.906158
1.026393
1.608016
1.710655
1.466276
1.950147
1.285435
1.573803
1.774194
2.077224
1.686217
2.013685
1.700880
1.432063
1.559140
2.086999
1.691105
1.764418
1.891496
1.774194
1.749756
1.583578
1.793744
1.803519
1.906158
1.823069
1.378299
1.852395
1.544477
1.779081
1.608016
1.769306
1.148583
1.925709
1.720430
1.627566
1.744868
1.568915
1.774194
1.774194
1.627566
1.739980
1.647116
1.515152
1.735093
1.720430
1.676442
1.524927
1.695992
1.568915
1.598240
1.749756
1.739980
1.715543
1.544477
1.705767
1.637341
1.471163
1.925709
1.588465
1.730205
1.456500
2.008798
1.622678
1.510264
1.666667
1.691105
1.837732
1.637341
1.177908
2.189638
1.466276
1.754643
1.803519
1.505376
1.930596
1.783969
1.226784
2.086999
1.867058
1.774194
1.300098
1.974585
1.627566
1.788856
1.715543
1.334311
1.818182
1.246334
1.871945
1.749756
1.857283
1.608016
1.808407
1.852395
1.906158
1.402737
2.267840
1.779081
1.783969
1.187683
1.945259
1.539589
2.023460
1.793744
1.764418
1.803519
1.642229
1.832845
1.705767
1.588465
1.270772
1.764418
1.798631
1.476051
1.793744
1.637341
1.710655
1.383187
1.906158
1.632454
1.495601
1.617791
1.813294
1.686217
1.290323
1.715543
1.779081
1.749756
1.441838
1.593353
1.612903
1.656891
1.476051
1.573803
1.559140
1.344086
1.857283
1.656891
1.334311
1.642229
1.744868
1.705767
1.515152
0.869990
1.891496
1.412512
1.744868
1.886608
1.622678
1.392962
1.060606
1.647116
0.786901
2.233627
1.564027
1.070381
1.490714
0.972630
1.969697
1.495601
1.588465
1.270772
1.559140
1.329423
1.397849
1.725318
1.686217
1.280547
1.412512
1.652004
1.632454
1.304985
1.524927
1.886608
1.612903
1.173021
1.720430
1.476051
1.593353
1.700880
1.314761
1.798631
1.221896
2.052786
1.632454
1.700880
1.666667
1.129032
2.165200
1.764418
1.715543
1.461388
1.754643
1.588465
1.612903
1.446725
1.925709
1.837732
1.999022
1.749756
1.710655
1.666667
1.735093
1.617791
1.598240
1.837732
1.832845
1.930596
1.862170
1.339198
1.823069
1.915934
1.798631
1.715543
1.583578
1.480938
2.126100
1.852395
1.637341
1.749756
1.969697
1.436950
1.774194
1.764418
1.842620
1.700880
1.842620
1.847507
1.539589
1.774194
1.241447
2.189638
1.818182
1.803519
1.930596
1.871945
1.744868
1.549365
1.573803
2.204301
1.930596
1.632454
1.593353
1.749756
1.710655
1.779081
1.935484
1.671554
1.793744
1.612903
2.067449
1.656891
1.593353
1.818182
1.994135
1.979472
1.588465
1.886608
1.564027
1.779081
1.568915
1.627566
1.598240
1.769306
1.432063
1.857283
1.901271
1.212121
1.510264
2.047898
1.774194
1.554252
1.852395
1.539589
1.402737
1.881720
1.901271
1.608016
1.793744
1.779081
1.725318
1.803519
1.754643
1.862170
1.749756
1.827957
2.013685
1.671554
1.573803
1.505376
1.749756
1.700880
1.788856
1.573803
1.940371
1.827957
1.422287
2.072336
1.661779
1.510264
1.642229
1.808407
1.505376
1.652004
1.656891
1.876833
1.564027
1.666667
1.705767
1.793744
1.695992
1.867058
1.515152
1.871945
1.524927
1.490714
1.383187
1.652004
1.695992
1.637341
1.554252
1.886608
1.612903
1.661779
1.779081
1.353861
1.749756
1.637341
1.842620
1.280547
1.823069
0.728250
0.913978
1.642229
1.221896
1.676442
1.715543
1.187683
1.955034
1.754643
0.899316
1.764418
1.842620
1.700880
1.774194
1.265885
1.886608
0.850440
2.111437
1.695992
1.407625
1.847507
1.852395
1.813294
1.529814
1.495601
1.500489
1.637341
1.656891
1.647116
1.871945
1.573803
1.236559
1.461388
1.779081
1.617791
1.827957
1.451613
1.788856
1.710655
1.231672
1.666667
1.568915
1.671554
1.735093
1.544477
1.573803
1.568915
1.808407
1.906158
1.862170
1.959922
1.319648
2.018573
1.588465
1.759531
1.627566
1.656891
1.422287
1.803519
1.730205
1.539589
1.686217
1.368524
1.832845
1.911046
1.652004
1.827957
1.994135
1.798631
1.823069
1.818182
1.915934
1.617791
1.779081
1.735093
1.754643
1.544477
1.803519
1.735093
1.725318
1.881720
1.480938
1.803519
1.661779
1.857283
1.412512
1.715543
2.072336
1.720430
1.725318
1.915934
1.280547
1.578690
1.559140
1.720430
1.925709
1.813294
1.559140
1.290323
1.725318
1.388074
1.593353
1.422287
1.759531
1.334311
1.691105
1.549365
1.407625
2.111437
1.705767
1.642229
1.827957
1.764418
1.955034
1.715543
1.798631
1.520039
1.549365
1.725318
1.647116
1.695992
1.686217
1.647116
1.652004
1.759531
1.661779
1.617791
1.402737
1.735093
1.407625
1.617791
1.837732
1.695992
1.407625
1.783969
1.637341
1.744868
1.725318
1.368524
1.295210
1.832845
1.500489
1.710655
1.568915
1.608016
1.397849
1.886608
1.700880
1.529814
1.578690
1.876833
1.666667
1.681329
1.661779
1.896383
1.544477
1.544477
1.656891
1.608016
1.857283
1.647116
1.637341
1.534702
1.720430
1.593353
1.759531
1.695992
1.608016
1.593353
1.681329
1.818182
1.588465
1.598240
1.676442
1.710655
1.490714
1.720430
1.754643
1.656891
1.823069
1.769306
1.720430
1.837732
1.827957
1.739980
1.705767
1.715543
1.588465
1.583578
1.676442
1.847507
1.329423
1.666667
1.730205
1.265885
1.642229
1.749756
1.788856
1.691105
1.554252
1.466276
1.901271
1.681329
1.749756
1.837732
1.676442
1.515152
1.823069
1.813294
1.691105
1.544477
1.402737
1.901271
1.901271
1.417400
1.867058
1.847507
1.881720
1.735093
1.642229
1.876833
1.300098
1.622678
1.612903
1.867058
1.710655
1.603128
1.534702
1.857283
1.603128
1.832845
1.656891
2.013685
1.739980
1.202346
1.886608
1.798631
1.412512
1.871945
1.656891
1.813294
1.730205
1.759531
1.383187
1.813294
1.446725
1.749756
1.837732
1.695992
1.710655
1.720430
1.480938
1.578690
1.661779
1.779081
1.383187
1.637341
1.769306
1.637341
1.823069
1.681329
1.735093
1.705767
1.798631
1.739980
1.686217
1.588465
1.710655
1.549365
1.774194
1.705767
1.246334
1.852395
1.695992
1.573803
1.725318
1.686217
1.681329
1.656891
1.803519
1.788856
1.568915
1.559140
1.622678
1.788856
1.564027
1.637341
1.647116
1.710655
1.700880
1.647116
1.622678
1.691105
1.823069
1.715543
1.744868
1.559140
1.823069
1.705767
1.539589
1.515152
1.334311
1.837732
1.656891
1.451613
1.842620
1.867058
1.705767
1.480938
1.143695
1.827957
1.598240
1.666667
1.813294
1.358749
1.959922
1.671554
1.911046
1.969697
1.622678
1.348974
1.163245
1.867058
1.554252
1.774194
1.397849
1.021505
1.818182
1.744868
1.505376
1.006843
2.155425
1.710655
1.783969
1.813294
1.617791
1.529814
1.818182
1.867058
2.062561
1.735093
1.935484
2.243402
1.818182
1.681329
1.901271
1.593353
1.886608
1.637341
1.759531
1.446725
1.256109
1.823069
1.739980
1.744868
1.686217
2.106549
1.285435
1.871945
1.564027
1.666667
2.067449
1.304985
2.111437
1.671554
1.661779
1.304985
1.642229
1.744868
1.813294
0.928641
2.184751
1.871945
1.955034
1.691105
1.896383
1.886608
1.637341
1.407625
1.710655
1.348974
2.121212
1.774194
1.832845
1.265885
2.204301
1.964809
1.603128
1.759531
2.111437
1.588465
1.695992
1.314761
1.510264
2.082111
1.529814
1.818182
1.446725
1.534702
1.173021
1.515152
1.896383
1.295210
1.221896
1.158358
2.047898
1.608016
2.038123
1.974585
1.642229
1.251222
1.823069
1.647116
1.681329
1.334311
2.326491
1.852395
1.476051
1.652004
1.691105
1.388074
1.881720
1.231672
2.003910
1.212121
2.018573
1.788856
1.842620
1.539589
1.265885
1.813294
2.013685
1.642229
2.038123
1.779081
1.749756
1.510264
1.705767
1.412512
2.086999
2.277615
1.832845
1.710655
1.441838
1.182796
1.994135
2.067449
1.857283
1.432063
1.950147
1.427175
1.959922
1.886608
1.876833
1.573803
1.534702
1.984360
1.959922
1.476051
1.754643
1.691105
1.783969
1.524927
1.818182
1.329423
1.715543
1.759531
1.549365
1.827957
1.759531
1.725318
1.500489
1.857283
1.818182
1.608016
1.681329
2.018573
1.652004
1.832845
1.676442
1.915934
1.456500
1.950147
1.730205
1.852395
1.827957
1.529814
1.818182
1.671554
1.539589
1.466276
1.803519
1.725318
1.695992
1.915934
1.593353
1.554252
1.612903
1.656891
1.612903
1.495601
1.749756
1.715543
1.725318
1.764418
1.725318
1.642229
1.686217
1.769306
1.642229
1.642229
1.495601
1.808407
1.725318
1.754643
1.334311
1.857283
1.608016
1.700880
1.593353
1.754643
1.436950
1.632454
1.534702
1.891496
1.471163
1.803519
1.730205
1.676442
1.715543
1.441838
1.627566
1.695992
1.637341
1.378299
1.974585
1.520039
1.681329
1.632454
1.632454
1.534702
1.495601
1.539589
1.759531
1.666667
1.715543
1.911046
1.671554
1.788856
1.710655
1.045943
2.126100
1.578690
1.549365
2.072336
1.632454
1.676442
1.637341
1.881720
0.928641
2.292278
1.309873
2.223851
1.627566
1.705767
1.686217
1.632454
2.003910
1.559140
1.681329
1.661779
1.436950
2.194526
1.808407
1.852395
1.065494
1.642229
2.043011
1.813294
1.769306
1.378299
1.471163
1.984360
1.466276
2.052786
1.456500
1.050831
2.292278
1.837732
1.622678
1.471163
1.642229
1.598240
1.779081
1.480938
1.881720
1.593353
1.583578
1.661779
1.803519
1.617791
1.622678
1.598240
1.363636
1.554252
1.783969
1.744868
1.656891
1.603128
1.632454
1.490714
1.573803
1.466276
1.656891
1.270772
2.795699
1.050831
2.815249
2.023460
0.997067
2.302053
1.759531
1.656891
0.444770
1.676442
1.637341
1.964809
1.818182
1.642229
2.008798
1.471163
2.800587
1.735093
1.031281
2.248289
1.774194
1.236559
1.417400
2.072336
0.772239
3.206256
1.173021
1.104594
1.994135
1.436950
2.111437
1.598240
1.412512
1.617791
1.060606
1.837732
2.194526
2.121212
1.485826
2.443793
1.588465
2.150538
1.265885
1.593353
0.786901
2.463343
1.857283
1.339198
1.827957
1.534702
1.818182
3.118280
0.606061
2.409580
2.218964
2.057674
0.469208
1.813294
1.671554
2.414467
1.392962
1.681329
0.869990
3.030303
1.671554
1.788856
1.969697
0.879765
1.549365
0.444770
2.170088
1.559140
1.906158
3.118280
1.735093
1.417400
1.832845
2.038123
1.964809
1.177908
2.590420
1.632454
2.458456
1.661779
1.783969
1.510264
2.033236
2.091887
2.218964
1.348974
1.612903
0.786901
3.108504
1.749756
1.788856
2.321603
1.681329
1.999022
1.304985
2.756598
2.986315
0.894428
1.964809
1.070381
0.596285
2.737048
2.262952
2.067449
1.994135
1.955034
2.067449
1.265885
2.424242
0.860215
1.226784
2.394917
2.463343
2.243402
1.529814
0.713587
2.160313
1.749756
1.348974
1.627566
2.561095
1.652004
0.992180
2.663734
1.339198
1.749756
1.099707
0.982405
1.808407
0.478983
2.380254
1.515152
1.241447
2.888563
1.060606
1.314761
1.598240
1.270772
2.155425
2.023460
1.715543
1.969697
0.923754
1.656891
2.605083
1.363636
1.617791
1.964809
1.388074
0.723363
2.101662
0.703812
2.360704
1.779081
1.138807
1.226784
1.451613
2.424242
0.493646
2.218964
1.901271
2.096774
0.816227
2.883675
1.705767
1.256109
2.233627
1.412512
1.847507
1.691105
1.520039
1.309873
3.162268
0.894428
1.275660
2.693060
0.625611
2.683284
0.654936
2.316716
2.214076
0.298143
2.546432
1.686217
2.404692
2.898338
2.678397
1.275660
0.840665
2.277615
1.251222
2.302053
2.658847
0.860215
2.047898
1.163245
2.575758
1.480938
2.179863
2.834800
0.830890
2.355816
1.969697
2.101662
0.869990
1.945259
1.700880
2.497556
1.955034
2.082111
0.640274
1.867058
2.600196
2.341153
1.568915
1.612903
2.526882
2.678397
0.869990
2.165200
0.606061
2.761486
0.371457
1.451613
1.911046
1.656891
2.170088
1.852395
1.148583
2.903226
2.526882
2.644184
0.821114
0.948192
2.634409
1.124145
1.329423
1.505376
1.021505
1.837732
1.920821
1.260997
2.082111
1.339198
2.184751
1.378299
2.463343
0.552297
1.006843
1.617791
0.508309
2.776149
2.096774
1.456500
1.642229
1.505376
1.896383
1.637341
1.031281
1.197458
2.091887
1.989247
1.876833
1.955034
1.021505
1.392962
1.564027
1.686217
2.473118
0.469208
2.434018
1.300098
1.568915
1.588465
1.617791
1.539589
1.451613
1.451613
0.967742
1.544477
1.236559
1.691105
1.412512
1.392962
1.676442
1.363636
2.052786
1.705767
1.686217
1.915934
1.652004
1.480938
1.774194
1.603128
1.725318
1.715543
1.632454
1.617791
1.764418
1.314761
2.170088
1.412512
1.764418
1.705767
1.358749
2.223851
0.786901
1.608016
1.979472
1.955034
2.126100
1.598240
1.412512
2.370479
1.647116
1.989247
1.832845
1.959922
2.130987
1.300098
2.233627
1.823069
1.397849
1.436950
2.008798
1.876833
1.803519
1.749756
1.969697
2.121212
1.754643
1.744868
2.091887
1.715543
1.524927
2.003910
1.412512
1.979472
1.867058
2.287390
0.953079
1.886608
1.779081
1.295210
2.228739
0.953079
1.867058
1.955034
1.994135
1.661779
2.077224
0.967742
1.979472
2.253177
1.676442
2.067449
1.823069
2.106549
0.571848
2.707722
1.099707
1.505376
1.862170
1.231672
1.959922
1.744868
2.184751
0.923754
2.556207
1.099707
2.145650
2.008798
1.368524
2.644184
2.121212
1.109482
1.598240
1.461388
1.681329
3.010753
0.664712
2.267840
0.654936
2.521994
1.656891
1.226784
1.520039
2.370479
0.948192
1.803519
1.539589
1.466276
1.304985
1.041056
1.788856
1.886608
2.336266
1.065494
1.994135
1.783969
1.842620
1.568915
1.226784
1.969697
1.568915
1.446725
2.248289
1.143695
2.448680
1.153470
2.096774
1.764418
1.212121
2.008798
1.666667
1.608016
1.842620
1.114370
2.057674
0.830890
2.238514
1.241447
2.008798
1.319648
1.270772
1.813294
2.360704
1.793744
0.928641
2.209189
1.378299
1.446725
2.013685
1.798631
1.710655
1.676442
1.759531
1.485826
1.554252
2.228739
1.681329
0.850440
2.145650
1.031281
2.057674
1.202346
1.783969
2.140762
1.715543
0.694037
2.394917
1.720430
2.062561
1.652004
1.598240
1.598240
0.830890
1.940371
1.124145
1.652004
1.373412
1.891496
2.140762
1.466276
1.920821
1.608016
1.637341
1.407625
1.857283
1.520039
1.788856
1.950147
1.627566
1.055718
2.101662
1.695992
1.383187
1.735093
1.451613
1.915934
1.950147
1.686217
1.744868
1.617791
2.238514
1.730205
1.871945
1.378299
1.392962
1.681329
1.945259
1.124145
1.793744
1.642229
0.997067
1.994135
1.500489
2.155425
2.140762
1.515152
1.930596
1.964809
2.106549
2.204301
1.485826
1.803519
1.715543
1.739980
1.578690
1.725318
1.329423
1.652004
1.920821
1.749756
1.896383
1.534702
1.290323
1.788856
1.432063
1.871945
1.700880
1.779081
1.192571
1.906158
1.813294
1.852395
1.632454
1.461388
1.959922
1.588465
1.520039
2.028348
1.549365
1.691105
1.505376
1.016618
2.160313
1.754643
1.754643
1.529814
1.231672
2.091887
1.520039
1.896383
1.901271
1.617791
2.238514
1.823069
1.705767
1.774194
1.358749
1.559140
1.783969
2.028348
1.715543
1.412512
1.774194
1.300098
1.925709
1.627566
1.632454
2.258065
1.490714
1.749756
1.221896
1.945259
1.495601
1.876833
1.608016
1.432063
1.896383
1.695992
1.622678
1.520039
1.647116
1.427175
1.642229
1.695992
1.173021
1.705767
1.309873
2.233627
1.886608
1.598240
1.637341
1.632454
1.774194
1.608016
1.871945
1.759531
1.510264
1.617791
1.749756
1.832845
1.559140
1.725318
1.544477
1.867058
1.788856
1.881720
1.676442
1.744868
1.656891
1.725318
1.314761
1.969697
1.627566
1.622678
1.549365
1.681329
1.686217
1.471163
1.803519
1.676442
1.583578
1.603128
1.608016
1.686217
1.632454
1.652004
1.583578
1.666667
1.735093
1.793744
1.710655
1.661779
1.554252
1.676442
1.632454
1.485826
1.578690
1.813294
1.774194
1.647116
1.524927
1.524927
1.720430
1.769306
1.837732
1.730205
1.676442
1.725318
1.578690
1.617791
1.642229
1.529814
1.881720
1.710655
1.725318
1.559140
1.774194
1.754643
1.681329
1.583578
1.676442
1.666667
1.744868
1.720430
1.676442
1.568915
1.847507
1.754643
1.681329
1.295210
2.077224
1.798631
1.686217
1.578690
1.798631
1.495601
1.583578
1.876833
1.700880
1.691105
1.881720
1.588465
1.881720
1.608016
1.534702
1.681329
1.427175
1.803519
1.632454
1.779081
1.686217
1.700880
1.446725
1.656891
1.559140
1.695992
1.661779
1.999022
1.681329
1.544477
1.490714
1.803519
1.842620
1.627566
1.744868
1.505376
1.774194
1.837732
1.710655
1.769306
2.238514
1.661779
1.940371
1.295210
2.126100
1.006843
2.497556
1.676442
2.086999
1.554252
1.725318
1.348974
1.578690
2.209189
1.598240
1.989247
1.652004
1.520039
1.798631
2.306940
1.710655
1.573803
1.559140
1.476051
1.940371
1.026393
2.121212
1.456500
2.008798
1.392962
1.363636
1.769306
1.544477
1.735093
1.754643
1.700880
1.554252
1.534702
1.505376
1.886608
0.997067
2.443793
1.490714
1.720430
1.397849
2.189638
1.735093
1.344086
1.779081
1.989247
1.568915
1.715543
1.544477
1.925709
1.642229
1.827957
1.339198
1.730205
1.285435
2.179863
1.798631
1.407625
1.559140
1.632454
1.896383
1.554252
1.774194
1.456500
1.407625
1.852395
1.788856
1.334311
1.955034
1.862170
1.803519
1.681329
1.290323
1.368524
1.583578
1.793744
1.466276
1.598240
1.124145
1.964809
1.578690
1.847507
1.295210
2.086999
1.363636
1.925709
1.549365
1.617791
1.950147
1.480938
1.476051
1.671554
1.798631
1.691105
1.451613
1.798631
1.695992
1.964809
1.041056
2.101662
1.632454
1.422287
1.104594
1.627566
1.901271
1.309873
2.072336
1.906158
1.021505
1.348974
2.438905
1.480938
1.911046
2.145650
1.715543
1.539589
1.906158
1.339198
2.170088
1.808407
1.915934
2.126100
1.676442
1.446725
1.622678
2.086999
1.251222
1.109482
2.375367
1.891496
1.715543
1.720430
1.583578
1.886608
1.026393
2.233627
1.617791
1.608016
1.593353
2.209189
1.598240
2.018573
1.754643
1.945259
1.700880
1.612903
1.187683
1.241447
2.468231
1.798631
1.485826
1.911046
1.490714
1.441838
1.915934
1.568915
1.739980
1.593353
1.886608
1.534702
1.730205
1.925709
1.681329
1.539589
1.612903
1.886608
1.285435
1.984360
1.959922
1.407625
1.837732
0.879765
1.925709
1.192571
2.883675
1.173021
1.989247
0.537634
2.683284
2.145650
1.319648
1.788856
1.715543
1.925709
0.987292
2.526882
1.779081
1.280547
2.326491
1.744868
1.779081
1.886608
1.515152
1.109482
2.316716
1.173021
1.911046
1.275660
2.512219
0.879765
2.497556
1.730205
2.140762
1.950147
1.867058
1.559140
2.028348
2.096774
0.474096
1.984360
1.304985
2.135875
2.189638
1.050831
1.695992
1.422287
1.060606
2.038123
1.612903
1.837732
1.539589
1.759531
1.173021
1.862170
2.077224
1.378299
2.023460
1.769306
1.226784
1.989247
1.603128
1.231672
1.744868
2.214076
0.982405
2.116325
1.412512
1.700880
1.456500
1.871945
1.495601
1.764418
1.779081
1.192571
1.920821
1.608016
2.043011
1.603128
1.471163
1.695992
1.495601
1.896383
1.256109
1.827957
2.013685
1.573803
1.368524
1.529814
1.857283
1.373412
1.539589
1.886608
1.798631
1.334311
1.656891
1.754643
1.989247
1.725318
1.691105
1.358749
1.622678
2.003910
1.617791
1.373412
1.715543
1.862170
1.612903
1.402737
1.793744
1.476051
1.515152
1.671554
1.935484
1.207234
2.121212
1.583578
1.876833
2.189638
1.573803
1.588465
1.749756
2.052786
1.862170
1.427175
2.321603
1.388074
1.842620
1.383187
2.370479
0.933529
2.082111
1.989247
1.270772
1.021505
2.614858
1.744868
1.593353
1.241447
2.722385
1.720430
1.554252
1.661779
1.832845
1.593353
1.969697
1.226784
1.720430
2.253177
1.901271
1.779081
1.823069
1.251222
1.608016
1.026393
1.612903
1.251222
2.517107
1.304985
2.003910
1.202346
2.135875
1.691105
0.923754
1.920821
2.331378
1.945259
1.940371
1.901271
1.686217
1.383187
1.285435
1.534702
1.471163
2.150538
1.070381
2.082111
1.461388
1.065494
1.730205
1.818182
2.086999
0.904203
2.390029
0.899316
1.759531
0.782014
2.140762
0.513196
2.165200
2.150538
1.050831
1.295210
2.517107
1.842620
0.518084
2.365591
1.857283
2.160313
0.689150
1.422287
1.915934
1.573803
1.671554
1.564027
1.368524
1.842620
0.918866
2.262952
1.124145
2.473118
1.304985
1.827957
1.847507
1.075269
2.135875
0.977517
2.614858
1.397849
2.013685
1.798631
1.275660
2.101662
0.928641
1.593353
2.145650
1.436950
1.945259
1.280547
1.529814
1.959922
0.630499
1.588465
2.331378
1.681329
1.735093
1.554252
2.287390
1.402737
1.705767
1.344086
2.282502
0.889541
2.204301
1.666667
1.304985
1.901271
1.168133
1.959922
1.378299
1.783969
1.358749
1.720430
1.906158
1.603128
1.451613
1.202346
2.238514
1.495601
1.686217
1.730205
1.520039
1.554252
1.695992
2.018573
1.656891
1.534702
1.725318
1.270772
1.490714
1.871945
1.940371
1.006843
1.876833
1.764418
1.236559
1.871945
1.925709
1.588465
2.018573
0.791789
2.346041
1.495601
1.656891
1.695992
1.568915
1.876833
0.469208
2.385142
2.067449
2.072336
1.700880
1.588465
1.588465
1.612903
1.612903
1.627566
1.549365
1.466276
1.681329
1.564027
1.412512
1.226784
1.476051
1.871945
1.031281
1.857283
1.681329
1.739980
1.593353
1.715543
1.392962
1.573803
1.656891
1.358749
1.397849
1.270772
1.378299
1.300098
1.617791
1.520039
1.334311
1.163245
2.072336
1.353861
1.984360
1.608016
1.788856
1.788856
2.096774
1.554252
1.441838
1.339198
1.436950
1.295210
1.837732
2.008798
2.086999
1.793744
2.170088
1.534702
1.603128
2.038123
1.779081
1.876833
1.876833
1.862170
1.842620
1.397849
2.008798
1.031281
2.189638
2.047898
1.539589
1.422287
1.617791
1.764418
1.608016
1.441838
1.221896
1.945259
1.974585
1.652004
2.253177
1.441838
2.082111
1.959922
1.632454
1.647116
2.116325
1.265885
1.647116
1.803519
1.661779
1.739980
1.671554
2.170088
1.744868
1.837732
1.739980
1.705767
2.189638
1.862170
0.957967
1.735093
1.730205
1.471163
1.969697
1.031281
1.959922
1.495601
1.397849
1.969697
1.647116
1.158358
1.881720
1.422287
1.832845
1.725318
1.432063
2.033236
1.647116
1.681329
1.656891
1.837732
1.783969
1.691105
1.925709
1.871945
1.827957
1.593353
1.940371
1.490714
1.964809
1.710655
1.920821
1.827957
1.568915
1.388074
1.969697
1.637341
1.896383
1.192571
1.891496
1.739980
1.617791
1.808407
1.446725
1.984360
1.427175
1.837732
1.608016
1.392962
1.857283
1.925709
1.041056
1.950147
1.686217
1.612903
1.559140
1.935484
1.735093
1.461388
1.984360
1.691105
1.642229
1.544477
1.749756
1.632454
1.739980
1.705767
1.700880
1.603128
1.847507
1.378299
1.818182
1.764418
1.686217
1.510264
1.964809
1.871945
1.710655
1.495601
1.837732
1.544477
1.891496
1.290323
1.441838
1.813294
1.847507
1.813294
1.348974
1.632454
1.783969
1.441838
1.964809
1.265885
1.842620
1.700880
1.412512
1.309873
1.979472
1.612903
1.642229
1.432063
1.348974
1.827957
1.309873
1.725318
1.764418
1.544477
1.642229
1.862170
1.896383
1.715543
1.661779
1.999022
1.666667
1.559140
1.617791
1.671554
1.813294
1.588465
1.813294
1.412512
1.827957
1.231672
1.871945
1.710655
1.133920
2.023460
1.520039
1.554252
1.871945
1.788856
1.622678
1.823069
1.280547
1.847507
1.715543
1.182796
1.862170
1.681329
0.962854
2.052786
1.730205
1.432063
1.769306
1.852395
1.744868
1.862170
1.344086
1.818182
1.715543
1.827957
1.573803
1.813294
1.647116
1.979472
1.471163
1.852395
1.818182
1.730205
1.158358
1.876833
1.823069
1.691105
1.544477
1.783969
1.813294
1.622678
1.715543
1.754643
1.295210
1.823069
1.783969
1.720430
1.402737
1.691105
1.432063
1.808407
1.769306
1.407625
1.744868
1.642229
1.666667
1.451613
1.798631
1.559140
1.622678
1.959922
1.622678
1.427175
1.793744
1.177908
1.608016
1.847507
1.505376
1.710655
1.862170
1.710655
1.564027
1.842620
1.383187
1.744868
1.730205
1.911046
1.559140
1.754643
1.480938
1.666667
1.779081
1.578690
1.686217
1.700880
1.622678
1.686217
1.735093
1.573803
1.695992
1.573803
1.739980
1.783969
1.192571
2.082111
1.891496
1.700880
1.578690
1.173021
2.184751
1.886608
1.788856
0.772239
2.404692
1.837732
2.243402
1.906158
1.568915
1.021505
2.438905
1.857283
1.808407
1.783969
1.300098
1.827957
1.109482
2.258065
1.832845
1.334311
1.876833
1.803519
1.974585
1.612903
1.422287
1.451613
1.901271
1.534702
1.652004
1.446725
1.309873
1.862170
1.813294
1.759531
1.642229
1.295210
1.764418
1.402737
2.170088
1.798631
1.710655
1.534702
1.896383
1.480938
1.637341
1.959922
2.248289
1.524927
1.974585
1.837732
1.705767
1.226784
2.091887
1.793744
1.583578
1.378299
1.676442
1.593353
1.857283
1.686217
1.505376
1.515152
1.999022
1.837732
1.544477
1.397849
1.485826
1.583578
1.774194
1.231672
1.964809
1.759531
1.622678
1.886608
1.730205
1.637341
1.891496
1.622678
1.407625
1.725318
1.461388
1.671554
1.568915
1.906158
1.656891
1.480938
1.358749
1.749756
1.695992
1.280547
1.358749
1.725318
1.915934
1.471163
1.534702
1.666667
1.911046
1.520039
1.735093
1.495601
1.661779
1.593353
1.823069
1.202346
1.710655
1.808407
1.510264
1.686217
1.837732
1.520039
1.808407
1.583578
1.588465
1.642229
1.661779
1.593353
1.564027
1.764418
1.847507
1.432063
1.608016
1.549365
1.764418
1.793744
1.490714
1.510264
1.485826
1.573803
1.627566
1.505376
1.612903
1.705767
1.652004
1.627566
1.695992
1.744868
1.632454
1.529814
1.554252
1.529814
1.881720
1.559140
1.691105
1.656891
1.466276
1.798631
1.661779
1.485826
1.920821
1.652004
1.945259
1.686217
1.671554
1.764418
1.793744
1.666667
1.686217
1.505376
1.832845
1.642229
1.608016
1.524927
1.725318
1.818182
1.564027
1.857283
1.764418
1.495601
1.529814
1.808407
1.720430
1.681329
1.549365
1.593353
1.808407
1.896383
1.627566
1.759531
0.962854
2.057674
1.735093
1.534702
1.622678
1.886608
1.622678
1.309873
1.695992
1.779081
1.725318
1.627566
1.632454
1.930596
1.681329
1.647116
1.661779
1.642229
1.559140
1.857283
1.759531
1.632454
1.681329
1.700880
1.480938
1.710655
1.891496
1.603128
1.793744
1.612903
1.578690
1.999022
1.730205
1.436950
1.632454
1.446725
2.106549
1.588465
1.495601
1.710655
1.241447
1.901271
1.603128
1.637341
1.783969
1.583578
1.490714
1.764418
1.598240
1.759531
1.495601
1.617791
1.901271
1.524927
1.739980
1.735093
1.554252
1.363636
1.881720
1.735093
1.764418
1.627566
1.612903
1.847507
1.573803
1.476051
1.852395
1.749756
1.583578
1.837732
1.642229
1.754643
1.495601
1.950147
1.529814
1.686217
1.823069
1.495601
1.686217
1.783969
1.642229
1.559140
1.622678
1.759531
1.647116
1.656891
1.871945
1.774194
1.529814
1.627566
1.720430
1.544477
1.725318
1.715543
1.637341
1.246334
1.842620
1.847507
1.627566
1.568915
1.823069
1.451613
1.715543
1.725318
1.852395
1.617791
1.578690
1.603128
1.529814
1.353861
2.003910
1.666667
1.818182
1.793744
1.422287
1.759531
1.285435
1.813294
1.955034
1.764418
1.422287
1.476051
1.461388
1.774194
1.691105
1.915934
1.392962
1.906158
1.642229
1.764418
1.813294
1.608016
1.583578
1.588465
1.568915
1.226784
1.544477
1.691105
1.505376
1.515152
1.793744
1.422287
1.652004
1.544477
1.471163
1.573803
1.754643
1.378299
1.197458
1.837732
1.896383
1.637341
1.309873
1.837732
1.549365
1.964809
1.749756
1.588465
1.759531
2.116325
1.959922
1.710655
1.417400
1.832845
2.145650
1.608016
1.383187
2.145650
1.823069
1.959922
1.984360
2.096774
1.637341
1.363636
1.735093
1.915934
1.764418
1.984360
1.788856
1.857283
1.383187
2.028348
1.720430
1.622678
1.827957
1.627566
1.920821
1.671554
2.003910
1.529814
1.319648
1.876833
1.598240
1.524927
1.676442
1.857283
1.554252
1.925709
1.901271
1.911046
1.285435
1.578690
1.915934
1.950147
1.588465
1.608016
1.524927
1.686217
1.749756
1.759531
1.578690
1.647116
1.754643
1.661779
1.695992
1.774194
1.710655
1.539589
1.754643
1.656891
1.520039
1.950147
1.735093
1.280547
1.803519
1.334311
1.739980
1.788856
1.710655
1.686217
1.622678
1.710655
1.769306
2.003910
1.427175
1.788856
1.505376
1.153470
1.984360
1.495601
1.974585
1.324536
1.783969
1.515152
1.681329
1.221896
1.309873
1.739980
1.710655
1.906158
1.769306
1.847507
1.852395
1.749756
1.637341
1.769306
1.603128
1.695992
1.896383
1.656891
1.964809
1.710655
1.368524
1.549365
1.788856
1.427175
1.739980
1.588465
1.578690
1.901271
1.730205
1.524927
1.769306
1.798631
1.906158
1.524927
1.480938
2.248289
1.788856
1.505376
1.368524
1.935484
1.652004
1.695992
1.270772
1.818182
1.681329
1.725318
1.407625
1.823069
1.559140
1.876833
1.798631
1.099707
1.969697
2.062561
1.202346
1.603128
1.735093
1.363636
1.700880
1.774194
1.568915
1.554252
1.539589
1.676442
1.417400
1.925709
1.490714
1.256109
1.950147
1.754643
1.456500
1.524927
1.608016
1.915934
1.676442
1.637341
2.106549
1.593353
1.060606
2.052786
1.793744
1.735093
1.539589
1.622678
1.691105
1.705767
1.867058
1.226784
2.106549
1.700880
1.564027
1.832845
1.456500
1.754643
1.260997
1.774194
1.446725
1.945259
1.539589
1.876833
2.072336
1.803519
1.803519
1.764418
1.275660
1.500489
1.793744
1.544477
1.994135
1.397849
1.593353
1.979472
1.666667
1.598240
1.695992
1.397849
1.798631
1.671554
1.495601
1.652004
1.837732
2.130987
1.754643
1.808407
1.759531
1.759531
1.441838
1.436950
1.720430
1.153470
1.959922
1.725318
1.749756
1.568915
1.705767
1.314761
1.798631
1.583578
1.823069
1.842620
1.862170
1.656891
1.358749
1.974585
1.857283
1.744868
1.295210
1.656891
1.608016
2.003910
1.637341
1.554252
1.319648
1.906158
1.583578
2.126100
1.837732
1.632454
1.642229
1.774194
1.735093
1.739980
1.652004
1.661779
1.652004
1.524927
1.593353
1.510264
1.906158
1.754643
1.681329
1.564027
1.534702
1.676442
1.524927
1.739980
1.392962
1.608016
1.818182
1.779081
1.490714
1.627566
1.813294
1.608016
1.573803
1.705767
1.578690
1.568915
1.627566
1.622678
1.226784
1.749756
1.632454
1.285435
1.446725
1.925709
1.749756
1.593353
2.057674
2.106549
1.925709
1.676442
1.578690
1.881720
1.754643
1.769306
1.637341
1.862170
1.749756
1.783969
1.549365
1.739980
1.608016
1.896383
1.632454
1.681329
1.876833
1.769306
1.691105
1.827957
1.700880
1.520039
1.735093
1.730205
1.124145
1.945259
1.559140
1.568915
1.920821
1.529814
1.471163
1.652004
1.744868
1.857283
1.114370
1.779081
2.023460
1.578690
1.739980
1.226784
1.769306
1.627566
2.170088
1.735093
1.627566
1.608016
1.608016
1.495601
1.803519
1.754643
1.524927
1.764418
1.808407
1.583578
1.652004
1.754643
1.534702
1.720430
1.739980
1.436950
1.984360
1.485826
1.979472
1.544477
1.837732
1.764418
1.573803
1.959922
1.725318
1.573803
1.539589
1.608016
1.999022
1.925709
1.642229
1.647116
1.363636
1.720430
1.823069
1.603128
1.739980
1.632454
1.842620
1.559140
1.730205
1.671554
1.617791
1.715543
1.588465
1.554252
1.783969
1.676442
1.407625
1.788856
1.534702
1.710655
1.661779
1.715543
1.867058
1.568915
1.647116
1.598240
1.495601
1.715543
1.309873
1.832845
1.627566
1.138807
1.940371
1.759531
1.964809
1.598240
1.608016
1.803519
1.818182
1.304985
2.018573
1.823069
1.754643
1.373412
1.515152
1.212121
1.735093
1.573803
1.573803
2.008798
1.681329
1.397849
1.344086
1.603128
1.275660
2.091887
2.145650
1.915934
1.368524
2.033236
1.568915
1.783969
1.212121
1.911046
1.715543
1.588465
1.608016
2.165200
1.363636
2.478006
0.601173
2.487781
1.329423
2.101662
1.583578
1.573803
1.652004
1.358749
1.691105
1.793744
1.436950
1.896383
1.901271
1.099707
1.867058
2.003910
1.251222
1.798631
1.959922
1.744868
0.640274
2.008798
1.417400
1.827957
1.500489
1.725318
1.798631
1.251222
2.179863
0.933529
1.397849
1.808407
1.661779
0.698925
3.044966
1.339198
2.311828
1.158358
2.565982
1.930596
1.212121
1.080156
2.404692
1.011730
2.468231
1.480938
1.876833
1.554252
1.383187
0.664712
3.196481
0.615836
2.033236
1.632454
1.085044
2.683284
1.304985
2.189638
1.896383
1.524927
0.620723
2.116325
2.057674
0.816227
1.867058
2.116325
1.666667
0.845552
1.226784
2.174976
2.091887
1.700880
1.691105
1.036168
1.642229
1.955034
0.420332
2.086999
1.691105
1.608016
1.363636
1.774194
2.082111
1.686217
1.871945
1.686217
1.803519
1.979472
1.373412
2.096774
1.524927
1.622678
0.581623
2.639296
0.967742
2.292278
1.402737
1.867058
1.295210
1.823069
1.827957
1.593353
1.705767
1.720430
1.505376
1.715543
1.285435
2.316716
1.818182
1.959922
1.612903
0.791789
2.531769
1.378299
1.999022
1.466276
2.101662
1.505376
1.661779
0.972630
2.512219
1.730205
2.091887
1.505376
1.529814
1.676442
1.666667
1.559140
1.710655
1.612903
1.422287
1.627566
1.735093
1.554252
1.608016
1.671554
1.480938
1.788856
1.647116
1.705767
1.671554
1.593353
1.661779
1.661779
1.647116
1.622678
1.637341
1.603128
1.617791
1.358749
1.251222
1.554252
1.534702
1.896383
1.480938
1.656891
1.871945
1.119257
2.116325
1.397849
1.348974
1.632454
2.619746
1.143695
1.612903
1.559140
1.568915
1.334311
2.326491
2.507331
1.754643
0.987292
2.810362
0.576735
1.754643
0.899316
1.221896
1.783969
1.060606
1.427175
2.028348
2.292278
0.733138
2.355816
1.207234
2.688172
0.967742
1.813294
1.959922
1.158358
2.438905
1.534702
0.855327
2.468231
1.182796
1.549365
2.228739
1.593353
1.114370
2.214076
1.094819
1.744868
2.492669
1.739980
2.101662
1.661779
0.434995
2.697947
0.904203
1.891496
0.630499
2.209189
1.446725
2.174976
1.236559
1.407625
0.718475
3.000978
1.495601
1.783969
1.999022
1.964809
1.661779
0.698925
2.531769
1.730205
1.534702
2.624633
1.608016
1.735093
1.881720
0.654936
2.414467
2.605083
0.860215
0.904203
2.189638
0.899316
1.774194
1.173021
2.023460
2.424242
0.557185
1.573803
1.842620
1.911046
0.620723
1.847507
2.096774
0.430108
2.531769
1.480938
2.013685
1.739980
2.551320
1.671554
1.402737
1.720430
1.793744
1.642229
2.082111
1.622678
0.752688
1.622678
2.697947
0.767351
3.396872
2.248289
0.786901
1.285435
0.645161
2.585533
1.656891
1.348974
1.818182
1.436950
1.138807
0.620723
2.649071
0.918866
2.370479
0.532747
0.845552
2.399804
1.661779
1.911046
1.363636
1.876833
1.329423
0.879765
2.952102
1.735093
1.392962
1.129032
2.883675
0.537634
1.480938
1.989247
1.989247
0.909091
1.994135
2.091887
1.510264
1.779081
0.244379
3.440860
0.821114
1.920821
0.826002
1.026393
2.688172
1.075269
1.564027
2.008798
1.265885
2.580645
1.143695
0.474096
3.191593
1.656891
1.774194
2.013685
1.911046
2.067449
0.542522
2.473118
1.270772
1.348974
0.391007
1.314761
1.593353
2.243402
1.451613
1.016618
1.505376
1.578690
2.634409
0.938416
1.217009
1.270772
3.010753
1.490714
0.581623
1.788856
2.028348
0.943304
2.346041
2.023460
1.099707
1.686217
2.116325
1.534702
1.808407
2.047898
1.041056
0.816227
2.820137
1.510264
2.023460
0.371457
1.974585
2.003910
1.529814
1.896383
1.911046
0.664712
2.727273
1.852395
2.272727
1.739980
1.119257
0.513196
1.114370
2.346041
1.280547
1.984360
0.835777
2.556207
0.757576
1.559140
1.876833
2.262952
1.725318
0.845552
1.588465
2.756598
0.547410
1.691105
2.873900
1.334311
1.407625
2.116325
1.368524
1.593353
2.820137
0.425220
3.147605
2.605083
2.091887
1.045943
1.397849
1.754643
1.187683
2.785924
2.717498
1.725318
1.373412
1.016618
1.329423
2.214076
0.689150
2.492669
1.490714
0.772239
1.295210
2.033236
0.972630
1.314761
1.324536
1.823069
1.788856
1.202346
1.500489
1.612903
1.476051
1.749756
1.544477
1.593353
1.598240
1.627566
1.515152
1.769306
1.593353
1.246334
2.140762
1.275660
2.033236
1.759531
1.480938
1.798631
1.520039
1.881720
1.725318
1.593353
1.617791
1.666667
1.769306
1.715543
1.847507
1.583578
1.681329
1.153470
1.695992
1.480938
1.793744
1.588465
1.925709
1.104594
1.857283
1.617791
1.759531
1.867058
1.779081
1.632454
1.862170
1.544477
1.935484
1.559140
1.598240
1.793744
1.451613
1.656891
1.676442
1.549365
1.842620
1.612903
1.808407
1.656891
1.510264
1.974585
1.397849
1.622678
1.901271
1.642229
1.793744
1.119257
1.896383
1.583578
1.911046
1.461388
1.671554
1.930596
1.309873
1.798631
1.304985
2.179863
1.554252
1.642229
1.652004
1.906158
1.896383
1.583578
1.852395
1.505376
1.339198
1.818182
2.126100
1.573803
2.204301
1.827957
1.710655
1.520039
1.192571
1.964809
1.212121
1.515152
2.047898
1.891496
1.500489
1.984360
1.710655
1.813294
1.251222
1.085044
2.306940
1.847507
1.715543
1.505376
1.578690
1.930596
1.876833
1.622678
1.847507
1.500489
1.070381
2.194526
2.018573
1.666667
2.062561
1.886608
2.086999
2.047898
2.086999
2.174976
1.070381
2.086999
1.818182
2.160313
1.539589
1.622678
1.901271
0.933529
2.189638
1.930596
1.700880
1.691105
0.664712
2.126100
1.397849
1.837732
1.886608
1.505376
1.754643
1.979472
0.899316
2.311828
1.578690
1.593353
1.314761
1.578690
1.920821
1.739980
1.754643
1.402737
1.559140
2.043011
1.588465
1.700880
1.251222
2.145650
1.524927
2.321603
1.168133
2.101662
1.642229
2.126100
1.867058
1.436950
1.935484
2.018573
1.080156
1.622678
1.412512
1.226784
2.272727
1.461388
1.891496
1.490714
1.583578
1.715543
2.267840
2.072336
1.627566
1.617791
1.827957
1.940371
1.695992
1.612903
1.686217
1.549365
1.837732
1.573803
1.842620
1.617791
1.129032
2.209189
1.886608
1.749756
1.573803
2.106549
1.930596
1.520039
1.432063
1.568915
2.390029
1.808407
1.226784
1.705767
1.612903
1.564027
1.011730
1.906158
1.026393
1.652004
1.911046
1.573803
1.906158
2.126100
1.608016
1.578690
1.735093
1.407625
1.813294
1.554252
1.808407
1.842620
1.720430
1.446725
1.906158
1.260997
1.906158
1.744868
1.710655
1.617791
1.476051
1.857283
1.783969
1.857283
1.373412
1.955034
1.603128
1.471163
1.769306
1.774194
1.725318
1.300098
1.911046
1.534702
1.705767
1.588465
1.862170
1.652004
1.461388
2.023460
1.573803
1.857283
1.686217
1.725318
1.451613
1.573803
1.471163
2.077224
1.725318
1.925709
1.823069
1.647116
1.412512
1.593353
2.067449
1.842620
1.485826
1.598240
1.564027
1.627566
1.847507
1.583578
1.661779
1.612903
1.783969
1.490714
1.935484
1.637341
1.759531
1.744868
1.505376
1.510264
2.052786
1.871945
1.759531
1.505376
1.788856
1.818182
0.894428
2.052786
1.720430
1.661779
1.422287
1.999022
1.290323
1.622678
1.520039
2.062561
1.945259
1.417400
1.774194
1.461388
1.598240
1.881720
1.769306
1.588465
1.705767
1.476051
1.544477
1.803519
1.471163
1.783969
1.705767
1.798631
1.779081
1.661779
1.652004
1.652004
1.280547
2.072336
1.666667
1.759531
1.700880
1.715543
1.554252
1.598240
1.739980
1.432063
1.573803
1.681329
1.510264
1.720430
1.652004
1.451613
1.798631
1.652004
1.720430
1.652004
1.823069
1.656891
1.666667
1.725318
1.603128
1.715543
1.583578
1.764418
1.671554
1.671554
1.695992
1.583578
1.725318
1.573803
1.593353
1.612903
1.642229
1.534702
1.647116
1.691105
1.700880
1.588465
1.598240
1.593353
1.715543
1.642229
1.691105
1.559140
1.617791
1.568915
1.691105
1.559140
1.476051
1.803519
1.759531
1.559140
1.422287
1.989247
1.876833
1.847507
1.446725
1.578690
1.495601
1.686217
1.754643
1.759531
1.515152
1.647116
1.588465
1.637341
1.715543
1.480938
1.754643
1.647116
1.612903
1.656891
1.568915
1.720430
1.564027
1.573803
1.691105
1.656891
1.559140
1.510264
1.705767
1.744868
1.705767
1.603128
1.456500
1.705767
1.608016
1.730205
1.627566
1.617791
1.608016
1.559140
1.710655
1.647116
1.847507
1.612903
1.568915
1.622678
1.686217
1.652004
1.700880
1.544477
1.744868
1.656891
1.676442
1.671554
1.500489
1.671554
1.744868
1.730205
1.554252
1.715543
1.725318
1.593353
1.720430
1.676442
1.705767
1.637341
1.725318
1.661779
1.652004
1.627566
1.627566
1.725318
1.769306
1.676442
1.661779
1.598240
1.759531
1.691105
1.656891
1.622678
1.676442
1.588465
1.637341
1.642229
1.652004
1.852395
1.725318
1.735093
1.642229
1.559140
1.695992
1.593353
1.842620
1.671554
1.735093
1.783969
1.603128
1.671554
1.622678
1.686217
1.739980
1.652004
1.710655
1.661779
1.739980
1.695992
1.598240
1.647116
1.788856
1.656891
1.617791
1.725318
1.612903
1.617791
1.627566
1.876833
1.725318
1.554252
1.739980
1.627566
1.632454
1.808407
1.588465
1.744868
1.666667
1.837732
1.510264
1.656891
1.744868
1.676442
1.735093
1.666667
1.769306
1.568915
1.681329
1.656891
1.691105
1.700880
1.534702
1.656891
1.691105
1.652004
1.793744
1.476051
1.720430
1.612903
1.695992
1.647116
1.656891
1.671554
1.598240
1.798631
1.637341
1.632454
1.647116
1.691105
1.725318
1.666667
1.612903
1.671554
1.656891
1.735093
1.681329
1.632454
1.764418
1.652004
1.744868
1.681329
1.666667
1.617791
1.813294
1.686217
1.715543
1.671554
1.769306
1.656891
1.705767
1.627566
1.769306
1.578690
1.779081
1.725318
1.725318
1.691105
1.578690
1.647116
1.720430
1.715543
1.725318
1.857283
1.603128
1.739980
1.666667
1.700880
1.603128
1.603128
1.842620
1.754643
1.661779
1.6764421.6813291.6617791.6715541.6666671.6764421.6715541.6666671.6862171.6715541.6617791.6471161.6568911.6520041.6568911.6862171.6568911.6568911.6715541.6911051.6813291.6764421.6862171.6715541.6715541.6764421.6520041.6422291.6666671.6715541.6617791.6568911.6666671.6422291.6324541.6568911.6568911.6520041.6715541.7057671.6715541.6813291.6715541.6813291.6911051.7008801.7106551.6764421.6715541.6715541.6862171.6764421.7106551.6471161.6813291.7106551.6666671.6715541.6862171.6568911.6813291.6520041.6715541.6911051.6715541.6764421.7106551.6959921.6666671.6862171.6617791.6862171.6959921.6959921.6862171.7057671.7057671.6813291.6764421.6813291.6911051.6568911.6520041.6617791.6862171.6617791.6666671.6862171.7008801.6666671.6666671.6813291.6813291.6764421.6715541.7106551.6813291.6959921.6959921.6568911.6666671.6764421.6862171.6617791.6568911.6715541.6911051.6862171.6911051.6813291.6764421.7008801.7008801.6959921.6959921.6813291.6911051.6813291.6862171.6911051.6764421.6568911.6959921.6862171.6715541.6617791.6715541.6520041.6666671.6813291.6911051.6764421.6764421.6862171.6813291.7008801.7008801.6862171.7057671.6911051.6764421.6862171.6959921.6764421.6715541.6911051.6666671.6959921.6862171.6959921.6764421.6617791.6715541.6911051.6862171.6813291.6959921.6764421.6959921.7057671.6764421.6764421.7106551.7008801.7155431.7253181.6715541.6520041.6911051.7106551.6617791.6764421.7057671.6813291.6666671.6764421.6911051.6813291.6813291.7155431.6813291.6715541.6813291.7008801.6568911.6764421.6862171.6520041.6666671.6862171.6520041.6568911.6911051.6911051.6959921.6813291.6862171.7204301.6862171.6764421.7057671.7302051.7106551.6959921.6911051.6959921.6862171.7106551.7106551.6862171.6959921.7057671.6813291.6568911.6666671.7302051.7008801.6959921.7057671.6764421.6568911.6813291.7204301.6911051.6862171.7106551.7204301.6911051.7008801.7057671.6959921.6862171.6813291.7008801.7057671.6959921.6862171.6617791.6862171.6911051.6862171.6715541.6959921.6715541.6911051.7057671.6911051.6813291.6813291.6911051.6715541.6813291.6959921.7106551.7057671.6715541.7008801.7008801.7008801.6764421.6715541.6813291.6617791.6813291.6959921.6715541.6959921.6715541.6862171.7155431.6959921.6813291.6764421.6911051.6764421.6617791.6813291.6959921.6764421.6764421.7008801.7057671.6813291.6862171.6911051.7057671.6764421.6862171.6959921.6715541.6666671.6911051.7008801.6666671.6715541.6813291.7106551.6813291.6862171.6959921.6715541.6911051.6959921.6715541.6911051.7106551.6959921.6862171.7106551.7057671.6764421.6911051.6959921.6764421.6813291.6911051.6959921.6666671.7057671.6959921.6862171.6617791.6911051.6813291.6617791.6764421.6862171.6520041.6911051.6666671.6715541.6764421.6764421.6862171.7008801.6666671.6862171.6911051.6813291.6715541.6911051.6959921.7008801.6764421.7106551.6911051.6764421.6911051.6959921.6862171.6715541.6959921.6862171.6666671.6666671.7057671.6666671.6959921.6764421.6764421.6764421.6813291.6715541.6715541.6813291.6764421.6568911.6862171.6764421.6715541.6617791.7106551.6959921.6911051.6764421.6862171.6617791.6617791.6715541.6862171.6422291.6715541.6911051.6617791.6666671.6617791.6617791.6862171.7008801.6862171.6959921.6911051.6715541.6715541.6666671.6617791.6911051.6813291.6715541.6617791.6959921.7008801.6813291.6617791.6911051.7106551.6959921.7008801.6959921.6764421.7008801.6959921.6862171.6813291.6666671.6568911.6373411.6422291.6617791.6715541.6568911.6617791.6911051.6764421.6813291.6959921.6959921.6764421.6862171.6813291.6813291.6715541.6862171.6715541.6715541.6813291.6911051.6715541.7008801.7057671.6862171.6666671.7106551.6959921.6813291.7057671.7057671.6813291.6813291.7204301.6715541.6813291.7057671.6862171.7008801.6862171.6715541.6813291.7057671.6862171.6666671.6862171.6959921.6764421.6764421.6959921.7497561.7057671.6959921.7008801.7155431.6862171.7008801.7008801.6715541.6959921.7057671.6666671.6911051.6959921.6764421.6813291.6959921.6862171.6911051.7008801.6764421.6862171.7106551.6813291.6911051.6764421.6715541.6520041.6666671.6715541.6715541.6715541.7106551.6959921.686217
1.676442
1.681329
1.681329
1.691105
1.681329
1.686217
1.686217
1.705767
1.681329
1.681329
1.720430
1.686217
1.656891
1.686217
1.676442
1.681329
1.686217
1.661779
1.681329
1.686217
1.661779
1.671554
1.705767
1.695992
1.691105
1.715543
1.715543
1.676442
1.671554
1.695992
1.691105
1.671554
1.705767
1.676442
1.695992
1.700880
1.691105
1.661779
1.666667
1.686217
1.686217
1.656891
1.686217
1.691105
1.705767
1.695992
1.695992
1.666667
1.676442
1.676442
1.691105
1.666667
1.676442
1.676442
1.700880
1.676442
1.710655
1.691105
1.676442
1.656891
1.695992
1.686217
1.676442
1.656891
1.676442
1.666667
1.666667
1.686217
1.681329
1.671554
1.686217
1.666667
1.676442
1.676442
1.671554
1.676442
1.710655
1.695992
1.676442
1.681329
1.691105
1.661779
1.666667
1.705767
1.691105
1.666667
1.661779
1.681329
1.686217
1.647116
1.686217
1.671554
1.676442
1.652004
1.666667
1.681329
1.661779
1.666667
1.681329
1.676442
1.656891
1.691105
1.686217
1.661779
1.695992
1.681329
1.671554
1.705767
1.686217
1.686217
1.676442
1.686217
1.666667
1.661779
1.695992
1.710655
1.671554
1.676442
1.686217
1.681329
1.686217
1.671554
1.695992
1.691105
1.661779
1.686217
1.720430
1.661779
1.695992
1.686217
1.666667
1.661779
1.686217
1.681329
1.700880
1.700880
1.671554
1.695992
1.705767
1.691105
1.691105
1.686217
1.666667
1.686217
1.700880
1.666667
1.691105
1.681329
1.676442
1.710655
1.671554
1.676442
1.695992
1.686217
1.681329
1.666667
1.661779
1.666667
1.666667
1.671554
1.656891
1.637341
1.656891
1.681329
1.691105
1.671554
1.671554
1.695992
1.676442
1.661779
1.671554
1.691105
1.739980
1.715543
1.671554
1.661779
1.700880
1.686217
1.671554
1.671554
1.700880
1.676442
1.652004
1.671554
1.705767
1.671554
1.671554
1.691105
1.676442
1.656891
1.695992
1.700880
1.681329
1.671554
1.676442
1.686217
1.661779
1.686217
1.681329
1.661779
1.671554
1.686217
1.671554
1.661779
1.686217
1.652004
1.656891
1.686217
1.715543
1.695992
1.695992
1.700880
1.715543
1.695992
1.700880
1.710655
1.686217
1.691105
1.695992
1.686217
1.686217
1.700880
1.705767
1.676442
1.671554
1.700880
1.695992
1.671554
1.691105
1.676442
1.671554
1.691105
1.691105
1.656891
1.661779
1.705767
1.700880
1.676442
1.710655
1.710655
1.700880
1.715543
1.710655
1.681329
1.705767
1.695992
1.710655
1.710655
1.720430
1.695992
1.695992
1.681329
1.705767
1.656891
1.691105
1.715543
1.681329
1.681329
1.691105
1.681329
1.642229
1.647116
1.666667
1.686217
1.676442
1.691105
1.681329
1.666667
1.681329
1.676442
1.652004
1.666667
1.710655
1.700880
1.666667
1.666667
1.671554
1.686217
1.666667
1.700880
1.671554
1.671554
1.695992
1.681329
1.691105
1.691105
1.681329
1.661779
1.676442
1.700880
1.671554
1.676442
1.695992
1.681329
1.681329
1.691105
1.700880
1.666667
1.666667
1.656891
1.656891
1.666667
1.656891
1.671554
1.661779
1.647116
1.681329
1.695992
1.681329
1.686217
1.710655
1.676442
1.681329
1.700880
1.666667
1.686217
1.676442
1.686217
1.710655
1.676442
1.661779
1.681329
1.691105
1.686217
1.666667
1.695992
1.686217
1.705767
1.715543
1.686217
1.700880
1.695992
1.676442
1.691105
1.695992
1.695992
1.671554
1.681329
1.681329
1.686217
1.652004
1.691105
1.686217
1.656891
1.676442
1.705767
1.686217
1.666667
1.681329
1.652004
1.681329
1.695992
1.681329
1.695992
1.676442
1.681329
1.671554
1.710655
1.676442
1.715543
1.720430
1.691105
1.691105
1.695992
1.681329
1.671554
1.681329
1.681329
1.666667
1.676442
1.686217
1.661779
1.656891
1.661779
1.686217
1.686217
1.691105
1.720430
1.710655
1.652004
1.661779
1.652004
1.661779
1.681329
1.671554
1.686217
1.710655
1.686217
1.676442
1.681329
1.691105
1.656891
1.642229
1.691105
1.681329
1.661779
1.676442
1.686217
1.652004
1.671554
1.686217
1.656891
1.671554
1.666667
1.652004
1.661779
1.671554
1.652004
1.681329
1.676442
1.671554
1.681329
1.691105
1.666667
1.652004
1.676442
1.681329
1.666667
1.715543
1.705767
1.656891
1.666667
1.705767
1.661779
1.656891
1.695992
1.676442
1.686217
1.700880
1.691105
1.686217
1.686217
1.681329
1.661779
1.647116
1.700880
1.676442
1.686217
1.691105
1.686217
1.661779
1.652004
1.637341
1.666667
1.652004
1.656891
1.671554
1.695992
1.700880
1.691105
1.695992
1.705767
1.700880
1.715543
1.710655
1.700880
1.695992
1.705767
1.671554
1.666667
1.681329
1.686217
1.681329
1.691105
1.700880
1.647116
1.691105
1.681329
1.676442
1.715543
1.691105
1.661779
1.671554
1.681329
1.632454
1.661779
1.695992
1.681329
1.671554
1.691105
1.715543
1.676442
1.676442
1.691105
1.686217
1.661779
1.656891
1.686217
1.686217
1.661779
1.700880
1.691105
1.671554
1.676442
1.715543
1.710655
1.700880
1.705767
1.705767
1.681329
1.710655
1.705767
1.671554
1.695992
1.686217
1.676442
1.681329
1.671554
1.671554
1.700880
1.666667
1.666667
1.686217
1.705767
1.691105
1.671554
1.691105
1.710655
1.671554
1.681329
1.691105
1.691105
1.671554
1.676442
1.681329
1.681329
1.691105
1.725318
1.710655
1.671554
1.686217
1.681329
1.695992
1.700880
1.666667
1.691105
1.710655
1.671554
1.676442
1.700880
1.671554
1.691105
1.691105
1.686217
1.715543
1.730205
1.710655
1.730205
1.715543
1.676442
1.710655
1.715543
1.710655
1.700880
1.686217
1.676442
1.681329
1.705767
1.676442
1.671554
1.681329
1.710655
1.686217
1.710655
1.710655
1.691105
1.700880
1.700880
1.691105
1.686217
1.691105
1.710655
1.691105
1.695992
1.681329
1.676442
1.686217
1.676442
1.686217
1.695992
1.676442
1.652004
1.666667
1.681329
1.661779
1.652004
1.681329
1.652004
1.691105
1.666667
1.652004
1.705767
1.656891
1.647116
1.666667
1.681329
1.671554
1.656891
1.676442
1.676442
1.710655
1.686217
1.681329
1.671554
1.691105
1.666667
1.656891
1.681329
1.700880
1.666667
1.671554
1.681329
1.691105
1.661779
1.676442
1.681329
1.661779
1.656891
1.656891
1.632454
1.661779
1.681329
1.661779
1.656891
1.661779
1.686217
1.652004
1.671554
1.676442
1.676442
1.656891
1.676442
1.695992
1.710655
1.686217
1.652004
1.656891
1.686217
1.686217
1.681329
1.647116
1.671554
1.676442
1.681329
1.691105
1.666667
1.661779
1.666667
1.632454
1.652004
1.661779
1.656891
1.637341
1.647116
1.676442
1.661779
1.652004
1.676442
1.676442
1.656891
1.656891
1.676442
1.647116
1.666667
1.695992
1.676442
1.647116
1.686217
1.681329
1.642229
1.656891
1.671554
1.661779
1.632454
1.656891
1.695992
1.661779
1.637341
1.666667
1.652004
1.656891
1.661779
1.681329
1.647116
1.666667
1.666667
1.656891
1.666667
1.642229
1.671554
1.661779
1.686217
1.681329
1.656891
1.656891
1.695992
1.671554
1.647116
1.691105
1.695992
1.666667
1.666667
1.676442
1.681329
1.661779
1.656891
1.671554
1.681329
1.656891
1.666667
1.661779
1.671554
1.652004
1.686217
1.671554
1.652004
1.671554
1.642229
1.671554
1.695992
1.686217
1.676442
1.652004
1.652004
1.676442
1.652004
1.656891
1.671554
1.681329
1.652004
1.652004
1.691105
1.666667
1.666667
1.700880
1.671554
1.700880
1.686217
1.656891
1.691105
1.681329
1.656891
1.676442
1.700880
1.666667
1.691105
1.710655
1.695992
1.695992
1.695992
1.686217
1.652004
1.656891
1.661779
1.642229
1.666667
1.676442
1.661779
1.676442
1.700880
1.676442
1.666667
1.695992
1.656891
1.632454
1.661779
1.676442
1.666667
1.661779
1.676442
1.647116
1.647116
1.656891
1.666667
1.652004
1.671554
1.676442
1.666667
1.652004
1.686217
1.661779
1.676442
1.695992
1.661779
1.676442
1.676442
1.676442
1.647116
1.671554
1.686217
1.661779
1.681329
1.691105
1.652004
1.652004
1.681329
1.681329
1.666667
1.700880
1.681329
1.676442
1.671554
1.661779
1.686217
1.666667
1.656891
1.666667
1.695992
1.691105
1.676442
1.691105
1.676442
1.720430
1.676442
1.666667
1.676442
1.705767
1.671554
1.671554
1.715543
1.710655
1.695992
1.681329
1.695992
1.656891
1.671554
1.686217
1.637341
1.652004
1.676442
1.705767
1.676442
1.681329
1.710655
1.705767
1.676442
1.676442
1.700880
1.661779
1.652004
1.676442
1.686217
1.661779
1.686217
1.700880
1.686217
1.656891
1.700880
1.686217
1.661779
1.656891
1.676442
1.676442
1.656891
1.671554
1.686217
1.691105
1.671554
1.691105
1.691105
1.681329
1.656891
1.661779
1.705767
1.661779
1.686217
1.695992
1.671554
1.666667
1.676442
1.666667
1.681329
1.676442
1.627566
1.652004
1.681329
1.647116
1.671554
1.681329
1.666667
1.637341
1.656891
1.695992
1.647116
1.661779
1.661779
1.652004
1.686217
1.666667
1.652004
1.676442
1.695992
1.671554
1.681329
1.695992
1.710655
1.661779
1.661779
1.656891
1.661779
1.647116
1.647116
1.652004
1.656891
1.666667
1.681329
1.700880
1.671554
1.671554
1.686217
1.676442
1.652004
1.681329
1.705767
1.700880
1.647116
1.652004
1.681329
1.681329
1.642229
1.666667
1.652004
1.656891
1.681329
1.671554
1.671554
1.695992
1.647116
1.691105
1.695992
1.671554
1.666667
1.691105
1.691105
1.666667
1.656891
1.686217
1.686217
1.656891
1.656891
1.686217
1.676442
1.642229
1.642229
1.681329
1.666667
1.661779
1.671554
1.695992
1.652004
1.666667
1.686217
1.681329
1.686217
1.705767
1.705767
1.642229
1.656891
1.691105
1.666667
1.691105
1.705767
1.681329
1.671554
1.671554
1.691105
1.666667
1.676442
1.700880
1.661779
1.666667
1.671554
1.647116
1.691105
1.666667
1.676442
1.691105
1.661779
1.661779
1.686217
1.681329
1.647116
1.656891
1.686217
1.686217
1.671554
1.710655
1.700880
1.700880
1.666667
1.691105
1.705767
1.681329
1.681329
1.691105
1.671554
1.691105
1.695992
1.676442
1.666667
1.705767
1.705767
1.686217
1.705767
1.730205
1.695992
1.676442
1.710655
1.710655
1.705767
1.671554
1.705767
1.720430
1.671554
1.681329
1.695992
1.691105
1.671554
1.705767
1.710655
1.691105
1.705767
1.710655
1.691105
1.705767
1.700880
1.691105
1.695992
1.671554
1.681329
1.725318
1.710655
1.691105
1.710655
1.666667
1.681329
1.710655
1.691105
1.681329
1.700880
1.705767
1.671554
1.676442
1.705767
1.686217
1.671554
1.681329
1.705767
1.710655
1.700880
1.695992
1.710655
1.691105
1.705767
1.715543
1.700880
1.705767
1.720430
1.691105
1.695992
1.695992
1.705767
1.700880
1.705767
1.700880
1.652004
1.681329
1.705767
1.686217
1.666667
1.671554
1.705767
1.681329
1.652004
1.671554
1.686217
1.661779
1.681329
1.700880
1.676442
1.686217
1.681329
1.671554
1.656891
1.681329
1.666667
1.681329
1.705767
1.691105
1.661779
1.671554
1.700880
1.671554
1.666667
1.666667
1.661779
1.671554
1.691105
1.686217
1.666667
1.671554
1.691105
1.691105
1.666667
1.681329
1.700880
1.695992
1.661779
1.681329
1.700880
1.681329
1.671554
1.676442
1.705767
1.671554
1.671554
1.671554
1.676442
1.671554
1.676442
1.676442
1.666667
1.652004
1.642229
1.666667
1.676442
1.666667
1.676442
1.671554
1.686217
1.681329
1.642229
1.656891
1.686217
1.676442
1.676442
1.695992
1.700880
1.661779
1.656891
1.676442
1.666667
1.695992
1.656891
1.676442
1.691105
1.681329
1.652004
1.676442
1.671554
1.666667
1.656891
1.652004
1.671554
1.642229
1.652004
1.671554
1.642229
1.666667
1.647116
1.671554
1.676442
1.647116
1.647116
1.686217
1.681329
1.647116
1.661779
1.652004
1.647116
1.642229
1.681329
1.627566
1.666667
1.686217
1.656891
1.661779
1.676442
1.666667
1.666667
1.671554
1.676442
1.642229
1.661779
1.676442
1.656891
1.656891
1.681329
1.642229
1.656891
1.681329
1.666667
1.652004
1.661779
1.666667
1.656891
1.681329
1.691105
1.671554
1.661779
1.656891
1.647116
1.676442
1.652004
1.656891
1.671554
1.666667
1.676442
1.686217
1.656891
1.656891
1.676442
1.700880
1.671554
1.666667
1.656891
1.671554
1.642229
1.661779
1.676442
1.666667
1.656891
1.656891
1.681329
1.656891
1.686217
1.691105
1.671554
1.676442
1.671554
1.686217
1.676442
1.691105
1.691105
1.676442
1.695992
1.715543
1.681329
1.676442
1.686217
1.700880
1.681329
1.681329
1.715543
1.691105
1.705767
1.715543
1.700880
1.700880
1.705767
1.705767
1.691105
1.720430
1.705767
1.735093
1.744868
1.730205
1.744868
1.754643
1.730205
1.739980
1.749756
1.739980
1.710655
1.730205
1.739980
1.720430
1.715543
1.735093
1.739980
1.730205
1.725318
1.730205
1.725318
1.715543
1.739980
1.715543
1.715543
1.730205
1.739980
1.720430
1.710655
1.725318
1.730205
1.705767
1.720430
1.715543
1.705767
1.676442
1.666667
1.705767
1.695992
1.681329
1.695992
1.705767
1.700880
1.681329
1.686217
1.705767
1.676442
1.686217
1.671554
1.691105
1.661779
1.676442
1.715543
1.725318
1.671554
1.666667
1.700880
1.671554
1.671554
1.705767
1.676442
1.661779
1.666667
1.671554
1.661779
1.666667
1.691105
1.681329
1.666667
1.676442
1.705767
1.676442
1.656891
1.652004
1.676442
1.671554
1.681329
1.686217
1.661779
1.647116
1.661779
1.661779
1.637341
1.671554
1.676442
1.661779
1.647116
1.676442
1.676442
1.691105
1.661779
1.661779
1.676442
1.681329
1.652004
1.652004
1.681329
1.637341
1.622678
1.666667
1.632454
1.647116
1.661779
1.617791
1.652004
1.666667
1.642229
1.637341
1.671554
1.647116
1.622678
1.666667
1.671554
1.642229
1.637341
1.676442
1.676442
1.652004
1.661779
1.666667
1.637341
1.656891
1.671554
1.642229
1.632454
1.632454
1.661779
1.661779
1.637341
1.656891
1.671554
1.637341
1.666667
1.676442
1.666667
1.686217
1.705767
1.695992
1.647116
1.642229
1.686217
1.671554
1.681329
1.671554
1.666667
1.661779
1.691105
1.656891
1.627566
1.642229
1.661779
1.627566
1.637341
1.652004
1.681329
1.642229
1.661779
1.647116
1.627566
1.671554
1.681329
1.656891
1.632454
1.627566
1.656891
1.627566
1.632454
1.666667
1.647116
1.671554
1.700880
1.676442
1.686217
1.681329
1.691105
1.671554
1.695992
1.700880
1.676442
1.705767
1.700880
1.671554
1.681329
1.715543
1.681329
1.671554
1.705767
1.676442
1.666667
1.642229
1.671554
1.691105
1.666667
1.671554
1.695992
1.671554
1.695992
1.686217
1.656891
1.681329
1.676442
1.671554
1.686217
1.656891
1.671554
1.666667
1.666667
1.676442
1.695992
1.686217
1.686217
1.642229
1.656891
1.686217
1.676442
1.676442
1.661779
1.632454
1.691105
1.666667
1.656891
1.676442
1.647116
1.647116
1.686217
1.666667
1.661779
1.681329
1.671554
1.686217
1.686217
1.661779
1.632454
1.652004
1.661779
1.666667
1.671554
1.691105
1.681329
1.652004
1.656891
1.666667
1.661779
1.647116
1.676442
1.666667
1.671554
1.681329
1.647116
1.700880
1.681329
1.647116
1.666667
1.671554
1.652004
1.676442
1.676442
1.656891
1.661779
1.661779
1.647116
1.637341
1.652004
1.691105
1.656891
1.676442
1.681329
1.666667
1.647116
1.671554
1.676442
1.661779
1.666667
1.695992
1.681329
1.676442
1.666667
1.671554
1.666667
1.666667
1.652004
1.691105
1.656891
1.642229
1.676442
1.647116
1.671554
1.671554
1.647116
1.652004
1.681329
1.647116
1.686217
1.686217
1.652004
1.642229
1.686217
1.661779
1.652004
1.671554
1.681329
1.666667
1.666667
1.676442
1.661779
1.637341
1.661779
1.686217
1.671554
1.671554
1.695992
1.681329
1.676442
1.671554
1.700880
1.710655
1.691105
1.652004
1.686217
1.710655
1.700880
1.695992
1.686217
1.666667
1.676442
1.700880
1.691105
1.715543
1.705767
1.691105
1.686217
1.691105
1.686217
1.686217
1.671554
1.671554
1.676442
1.656891
1.647116
1.661779
1.661779
1.656891
1.627566
1.652004
1.642229
1.642229
1.661779
1.666667
1.666667
1.671554
1.612903
1.647116
1.661779
1.637341
1.656891
1.656891
1.642229
1.661779
1.652004
1.632454
1.661779
1.652004
1.652004
1.666667
1.642229
1.652004
1.656891
1.671554
1.637341
1.627566
1.642229
1.627566
1.612903
1.652004
1.642229
1.661779
1.642229
1.603128
1.647116
1.671554
1.642229
1.656891
1.686217
1.647116
1.637341
1.656891
1.642229
1.666667
1.686217
1.642229
1.647116
1.642229
1.642229
1.642229
1.671554
1.681329
1.671554
1.681329
1.700880
1.710655
1.700880
1.676442
1.700880
1.705767
1.705767
1.700880
1.695992
1.710655
1.730205
1.710655
1.715543
1.730205
1.715543
1.720430
1.705767
1.686217
1.715543
1.720430
1.676442
1.715543
1.695992
1.691105
1.730205
1.700880
1.671554
1.695992
1.705767
1.695992
1.676442
1.691105
1.705767
1.700880
1.686217
1.691105
1.715543
1.671554
1.681329
1.686217
1.691105
1.695992
1.720430
1.686217
1.695992
1.705767
1.671554
1.671554
1.710655
1.700880
1.705767
1.691105
1.720430
1.705767
1.676442
1.700880
1.686217
1.691105
1.681329
1.710655
1.695992
1.710655
1.725318
1.700880
1.705767
1.715543
1.710655
1.695992
1.700880
1.739980
1.735093
1.710655
1.725318
1.720430
1.710655
1.715543
1.686217
1.656891
1.652004
1.632454
1.656891
1.612903
1.603128
1.642229
1.622678
1.622678
1.656891
1.632454
1.652004
1.656891
1.691105
1.647116
1.647116
1.666667
1.666667
1.671554
1.691105
1.676442
1.656891
1.656891
1.686217
1.695992
1.676442
1.666667
1.710655
1.666667
1.700880
1.710655
1.715543
1.691105
1.681329
1.705767
1.700880
1.710655
1.725318
1.735093
1.744868
1.735093
1.715543
1.691105
1.700880
1.720430
1.710655
1.671554
1.735093
1.730205
1.725318
1.730205
1.725318
1.700880
1.710655
1.730205
1.710655
1.730205
1.705767
1.705767
1.730205
1.695992
1.705767
1.749756
1.720430
1.710655
1.749756
1.749756
1.691105
1.754643
1.642229
1.788856
1.769306
1.647116
1.788856
1.769306
1.764418
1.720430
1.720430
1.730205
1.715543
1.681329
1.715543
1.710655
1.681329
1.720430
1.735093
1.710655
1.691105
1.720430
1.715543
1.695992
1.715543
1.730205
1.700880
1.730205
1.730205
1.710655
1.705767
1.739980
1.705767
1.730205
1.735093
1.710655
1.725318
1.715543
1.700880
1.705767
1.700880
1.681329
1.691105
1.686217
1.715543
1.710655
1.676442
1.705767
1.671554
1.681329
1.695992
1.652004
1.661779
1.700880
1.705767
1.666667
1.652004
1.695992
1.676442
1.647116
1.676442
1.686217
1.700880
1.681329
1.686217
1.715543
1.681329
1.710655
1.710655
1.671554
1.691105
1.710655
1.686217
1.700880
1.700880
1.715543
1.686217
1.691105
1.710655
1.695992
1.652004
1.652004
1.686217
1.686217
1.656891
1.666667
1.686217
1.691105
1.676442
1.661779
1.676442
1.661779
1.642229
1.681329
1.686217
1.661779
1.647116
1.681329
1.656891
1.632454
1.652004
1.676442
1.647116
1.647116
1.676442
1.647116
1.647116
1.691105
1.661779
1.671554
1.671554
1.652004
1.652004
1.681329
1.691105
1.642229
1.666667
1.676442
1.647116
1.652004
1.661779
1.725318
1.686217
1.661779
1.705767
1.686217
1.691105
1.705767
1.617791
1.691105
1.695992
1.691105
1.661779
1.671554
1.700880
1.691105
1.705767
1.676442
1.686217
1.710655
1.710655
1.705767
1.622678
1.720430
1.725318
1.681329
1.666667
1.710655
1.686217
1.647116
1.647116
1.676442
1.666667
1.656891
1.691105
1.632454
1.671554
1.666667
1.637341
1.656891
1.652004
1.647116
1.622678
1.656891
1.686217
1.671554
1.661779
1.686217
1.686217
1.652004
1.647116
1.676442
1.695992
1.666667
1.676442
1.603128
1.671554
1.637341
1.652004
1.744868
1.730205
1.666667
1.735093
1.739980
1.671554
1.617791
1.774194
1.725318
1.686217
1.686217
1.735093
1.681329
1.710655
1.744868
1.710655
1.705767
1.652004
1.681329
1.681329
1.705767
1.671554
1.656891
1.681329
1.749756
1.720430
1.676442
1.652004
1.725318
1.710655
1.715543
1.705767
1.691105
1.725318
1.715543
1.681329
1.676442
1.666667
1.730205
1.695992
1.691105
1.710655
1.681329
1.681329
1.686217
1.705767
1.656891
1.617791
1.705767
1.705767
1.652004
1.622678
1.676442
1.691105
1.666667
1.652004
1.705767
1.744868
1.681329
1.671554
1.691105
1.720430
1.681329
1.691105
1.681329
1.652004
1.700880
1.681329
1.730205
1.700880
1.695992
1.666667
1.720430
1.676442
1.656891
1.705767
1.695992
1.603128
1.666667
1.681329
1.676442
1.666667
1.676442
1.676442
1.710655
1.666667
1.710655
1.647116
1.671554
1.686217
1.691105
1.652004
1.666667
1.686217
1.671554
1.666667
1.691105
1.710655
1.705767
1.671554
1.647116
1.617791
1.725318
1.642229
1.671554
1.632454
1.686217
1.647116
1.642229
1.652004
1.661779
1.622678
1.661779
1.676442
1.617791
1.671554
1.661779
1.622678
1.652004
1.642229
1.608016
1.637341
1.661779
1.637341
1.637341
1.652004
1.612903
1.666667
1.666667
1.676442
1.666667
1.608016
1.637341
1.691105
1.666667
1.676442
1.632454
1.720430
1.700880
1.710655
1.700880
1.661779
1.656891
1.686217
1.686217
1.666667
1.617791
1.725318
1.676442
1.666667
1.691105
1.661779
1.666667
1.705767
1.686217
1.642229
1.661779
1.705767
1.661779
1.666667
1.700880
1.715543
1.735093
1.691105
1.705767
1.735093
1.710655
1.715543
1.691105
1.691105
1.695992
1.700880
1.715543
1.666667
1.661779
1.715543
1.691105
1.642229
1.686217
1.715543
1.686217
1.666667
1.735093
1.637341
1.695992
1.691105
1.695992
1.705767
1.705767
1.705767
1.656891
1.715543
1.700880
1.705767
1.695992
1.681329
1.710655
1.725318
1.710655
1.739980
1.710655
1.676442
1.715543
1.710655
1.705767
1.676442
1.700880
1.661779
1.700880
1.681329
1.691105
1.691105
1.686217
1.691105
1.661779
1.652004
1.656891
1.681329
1.676442
1.715543
1.661779
1.681329
1.671554
1.671554
1.695992
1.676442
1.691105
1.671554
1.715543
1.666667
1.671554
1.686217
1.656891
1.681329
1.661779
1.676442
1.700880
1.686217
1.686217
1.695992
1.666667
1.676442
1.700880
1.676442
1.691105
1.691105
1.661779
1.686217
1.681329
1.656891
1.666667
1.676442
1.686217
1.661779
1.686217
1.686217
1.676442
1.661779
1.700880
1.710655
1.671554
1.642229
1.632454
1.710655
1.652004
1.686217
1.725318
1.671554
1.720430
1.652004
1.715543
1.725318
1.715543
1.720430
1.705767
1.710655
1.725318
1.754643
1.676442
1.730205
1.705767
1.700880
1.652004
1.700880
1.744868
1.725318
1.720430
1.637341
1.671554
1.652004
1.715543
1.695992
1.666667
1.681329
1.671554
1.647116
1.661779
1.622678
1.671554
1.705767
1.691105
1.686217
1.695992
1.608016
1.666667
1.671554
1.686217
1.671554
1.710655
1.700880
1.710655
1.705767
1.647116
1.661779
1.642229
1.681329
1.710655
1.705767
1.666667
1.735093
1.730205
1.681329
1.652004
1.671554
1.686217
1.705767
1.730205
1.686217
1.676442
1.710655
1.764418
1.720430
1.695992
1.730205
1.749756
1.671554
1.686217
1.725318
1.759531
1.754643
1.720430
1.700880
1.739980
1.774194
1.759531
1.715543
1.725318
1.637341
1.779081
1.720430
1.735093
1.730205
1.686217
1.720430
1.725318
1.735093
1.661779
1.720430
1.715543
1.710655
1.720430
1.700880
1.715543
1.686217
1.652004
1.647116
1.637341
1.617791
1.730205
1.686217
1.559140
1.666667
1.695992
1.622678
1.642229
1.622678
1.676442
1.627566
1.652004
1.681329
1.661779
1.637341
1.661779
1.656891
1.549365
1.671554
1.700880
1.656891
1.637341
1.700880
1.632454
1.686217
1.720430
1.661779
1.608016
1.627566
1.593353
1.695992
1.691105
1.666667
1.617791
1.568915
1.676442
1.691105
1.666667
1.627566
1.695992
1.671554
1.632454
1.647116
1.671554
1.681329
1.720430
1.686217
1.656891
1.676442
1.637341
1.656891
1.700880
1.695992
1.661779
1.632454
1.666667
1.656891
1.681329
1.617791
1.681329
1.617791
1.710655
1.627566
1.603128
1.676442
1.691105
1.617791
1.676442
1.676442
1.652004
1.661779
1.637341
1.627566
1.691105
1.671554
1.632454
1.720430
1.661779
1.652004
1.695992
1.676442
1.686217
1.735093
1.666667
1.739980
1.744868
1.666667
1.695992
1.695992
1.744868
1.705767
1.705767
1.700880
1.715543
1.642229
1.739980
1.749756
1.686217
1.695992
1.700880
1.676442
1.783969
1.739980
1.783969
1.715543
1.730205
1.720430
1.691105
1.725318
1.691105
1.691105
1.710655
1.695992
1.695992
1.720430
1.686217
1.686217
1.739980
1.681329
1.754643
1.725318
1.715543
1.691105
1.676442
1.656891
1.783969
1.691105
1.695992
1.676442
1.700880
1.652004
1.759531
1.774194
1.686217
1.686217
1.710655
1.652004
1.691105
1.681329
1.676442
1.710655
1.720430
1.671554
1.617791
1.730205
1.681329
1.695992
1.681329
1.676442
1.627566
1.661779
1.720430
1.671554
1.661779
1.730205
1.705767
1.681329
1.652004
1.656891
1.686217
1.652004
1.720430
1.686217
1.637341
1.647116
1.739980
1.749756
1.676442
1.705767
1.720430
1.710655
1.710655
1.593353
1.710655
1.622678
1.710655
1.681329
1.608016
1.652004
1.656891
1.676442
1.656891
1.647116
1.632454
1.652004
1.671554
1.642229
1.642229
1.666667
1.647116
1.681329
1.681329
1.652004
1.700880
1.642229
1.774194
1.749756
1.735093
1.705767
1.700880
1.739980
1.666667
1.774194
1.744868
1.759531
1.739980
1.710655
1.735093
1.832845
1.813294
1.686217
1.837732
1.779081
1.759531
1.827957
1.730205
1.808407
1.788856
1.798631
1.793744
1.691105
1.827957
1.808407
1.813294
1.842620
1.793744
1.911046
1.896383
1.876833
1.896383
1.891496
1.847507
1.798631
1.867058
1.827957
1.783969
1.783969
1.739980
1.735093
1.798631
1.764418
1.720430
1.705767
1.686217
1.695992
1.652004
1.637341
1.676442
1.656891
1.632454
1.661779
1.700880
1.666667
1.681329
1.686217
1.661779
1.695992
1.608016
1.686217
1.661779
1.686217
1.622678
1.608016
1.627566
1.686217
1.656891
1.656891
1.661779
1.593353
1.661779
1.652004
1.656891
1.676442
1.652004
1.612903
1.578690
1.632454
1.686217
1.588465
1.671554
1.642229
1.603128
1.632454
1.681329
1.666667
1.661779
1.622678
1.695992
1.652004
1.671554
1.710655
1.695992
1.656891
1.681329
1.652004
1.725318
1.700880
1.705767
1.695992
1.666667
1.652004
1.564027
1.710655
1.666667
1.686217
1.593353
1.593353
1.676442
1.642229
1.647116
1.622678
1.603128
1.671554
1.627566
1.637341
1.568915
1.632454
1.642229
1.608016
1.681329
1.681329
1.632454
1.608016
1.622678
1.676442
1.676442
1.681329
1.612903
1.632454
1.710655
1.739980
1.691105
1.617791
1.676442
1.735093
1.608016
1.637341
1.666667
1.656891
1.681329
1.608016
1.632454
1.588465
1.652004
1.593353
1.642229
1.573803
1.588465
1.593353
1.632454
1.608016
1.583578
1.612903
1.588465
1.539589
1.534702
1.608016
1.573803
1.554252
1.622678
1.573803
1.612903
1.632454
1.598240
1.656891
1.637341
1.598240
1.632454
1.588465
1.583578
1.647116
1.564027
1.559140
1.612903
1.603128
1.534702
1.608016
1.573803
1.520039
1.598240
1.568915
1.617791
1.588465
1.559140
1.637341
1.617791
1.612903
1.608016
1.598240
1.524927
1.588465
1.598240
1.642229
1.603128
1.612903
1.588465
1.583578
1.612903
1.559140
1.637341
1.632454
1.627566
1.637341
1.564027
1.578690
1.715543
1.666667
1.632454
1.647116
1.647116
1.617791
1.637341
1.598240
1.686217
1.661779
1.627566
1.647116
1.642229
1.573803
1.700880
1.642229
1.666667
1.632454
1.691105
1.632454
1.705767
1.603128
1.656891
1.671554
1.666667
1.603128
1.652004
1.676442
1.661779
1.681329
1.647116
1.691105
1.661779
1.637341
1.686217
1.730205
1.676442
1.700880
1.676442
1.691105
1.608016
1.715543
1.705767
1.593353
1.744868
1.666667
1.681329
1.715543
1.700880
1.671554
1.652004
1.700880
1.691105
1.676442
1.739980
1.730205
1.695992
1.705767
1.671554
1.735093
1.754643
1.739980
1.715543
1.691105
1.681329
1.715543
1.666667
1.705767
1.769306
1.754643
1.705767
1.676442
1.715543
1.754643
1.725318
1.783969
1.735093
1.705767
1.749756
1.744868
1.695992
1.774194
1.735093
1.700880
1.715543
1.715543
1.730205
1.705767
1.739980
1.735093
1.705767
1.754643
1.749756
1.725318
1.681329
1.715543
1.808407
1.749756
1.715543
1.705767
1.695992
1.725318
1.695992
1.759531
1.735093
1.695992
1.769306
1.681329
1.739980
1.715543
1.735093
1.700880
1.735093
1.695992
1.739980
1.715543
1.681329
1.739980
1.739980
1.725318
1.715543
1.735093
1.705767
1.720430
1.774194
1.730205
1.720430
1.617791
1.769306
1.744868
1.710655
1.715543
1.691105
1.735093
1.749756
1.686217
1.744868
1.671554
1.769306
1.715543
1.720430
1.647116
1.730205
1.691105
1.730205
1.686217
1.686217
1.632454
1.720430
1.695992
1.695992
1.686217
1.700880
1.691105
1.691105
1.676442
1.735093
1.691105
1.647116
1.700880
1.700880
1.739980
1.671554
1.666667
1.695992
1.735093
1.700880
1.612903
1.739980
1.710655
1.671554
1.695992
1.730205
1.700880
1.720430
1.661779
1.676442
1.652004
1.730205
1.691105
1.710655
1.666667
1.652004
1.647116
1.754643
1.715543
1.715543
1.656891
1.691105
1.681329
1.735093
1.617791
1.735093
1.647116
1.681329
1.710655
1.666667
1.691105
1.573803
1.686217
1.739980
1.700880
1.710655
1.681329
1.632454
1.676442
1.671554
1.676442
1.666667
1.656891
1.652004
1.705767
1.710655
1.676442
1.686217
1.691105
1.617791
1.749756
1.744868
1.681329
1.705767
1.710655
1.695992
1.593353
1.769306
1.686217
1.710655
1.725318
1.656891
1.700880
1.612903
1.695992
1.671554
1.671554
1.656891
1.637341
1.612903
1.744868
1.715543
1.671554
1.681329
1.642229
1.676442
1.710655
1.725318
1.691105
1.749756
1.700880
1.656891
1.720430
1.705767
1.759531
1.710655
1.681329
1.647116
1.725318
1.700880
1.754643
1.730205
1.735093
1.686217
1.705767
1.730205
1.739980
1.715543
1.612903
1.705767
1.642229
1.730205
1.725318
1.695992
1.671554
1.627566
1.739980
1.720430
1.666667
1.632454
1.710655
1.681329
1.691105
1.671554
1.661779
1.700880
1.691105
1.681329
1.705767
1.700880
1.695992
1.705767
1.652004
1.730205
1.632454
1.710655
1.705767
1.710655
1.695992
1.681329
1.695992
1.627566
1.720430
1.661779
1.735093
1.681329
1.695992
1.700880
1.715543
1.661779
1.759531
1.710655
1.676442
1.676442
1.710655
1.676442
1.608016
1.637341
1.710655
1.715543
1.656891
1.691105
1.686217
1.700880
1.666667
1.710655
1.705767
1.666667
1.735093
1.652004
1.710655
1.681329
1.652004
1.720430
1.739980
1.735093
1.720430
1.676442
1.676442
1.681329
1.783969
1.715543
1.700880
1.705767
1.681329
1.666667
1.691105
1.681329
1.700880
1.661779
1.705767
1.705767
1.637341
1.749756
1.725318
1.686217
1.671554
1.720430
1.710655
1.705767
1.700880
1.749756
1.695992
1.700880
1.720430
1.676442
1.671554
1.779081
1.754643
1.700880
1.686217
1.676442
1.686217
1.661779
1.622678
1.735093
1.710655
1.686217
1.725318
1.700880
1.705767
1.671554
1.666667
1.700880
1.715543
1.671554
1.700880
1.725318
1.715543
1.661779
1.705767
1.695992
1.652004
1.700880
1.720430
1.666667
1.666667
1.705767
1.705767
1.710655
1.671554
1.637341
1.710655
1.715543
1.705767
1.730205
1.686217
1.637341
1.725318
1.666667
1.642229
1.764418
1.720430
1.676442
1.705767
1.695992
1.695992
1.725318
1.700880
1.691105
1.632454
1.656891
1.676442
1.764418
1.681329
1.725318
1.666667
1.695992
1.715543
1.720430
1.705767
1.691105
1.705767
1.720430
1.705767
1.671554
1.632454
1.764418
1.691105
1.627566
1.725318
1.681329
1.681329
1.666667
1.735093
1.730205
1.700880
1.656891
1.744868
1.730205
1.686217
1.749756
1.744868
1.720430
1.715543
1.705767
1.676442
1.739980
1.700880
1.686217
1.715543
1.676442
1.710655
1.691105
1.656891
1.671554
1.764418
1.715543
1.715543
1.681329
1.671554
1.642229
1.608016
1.710655
1.715543
1.642229
1.681329
1.695992
1.656891
1.681329
1.681329
1.691105
1.681329
1.656891
1.710655
1.617791
1.681329
1.686217
1.666667
1.612903
1.710655
1.691105
1.652004
1.622678
1.725318
1.691105
1.681329
1.608016
1.700880
1.705767
1.730205
1.681329
1.695992
1.647116
1.705767
1.700880
1.730205
1.744868
1.686217
1.691105
1.710655
1.676442
1.700880
1.715543
1.695992
1.691105
1.637341
1.739980
1.715543
1.705767
1.691105
1.725318
1.676442
1.691105
1.705767
1.637341
1.730205
1.744868
1.710655
1.681329
1.725318
1.710655
1.691105
1.676442
1.715543
1.661779
1.691105
1.686217
1.691105
1.676442
1.700880
1.676442
1.700880
1.681329
1.652004
1.686217
1.676442
1.661779
1.695992
1.647116
1.691105
1.676442
1.705767
1.656891
1.671554
1.656891
1.666667
1.705767
1.598240
1.686217
1.695992
1.681329
1.666667
1.705767
1.652004
1.715543
1.676442
1.695992
1.715543
1.720430
1.652004
1.686217
1.705767
1.691105
1.715543
1.661779
1.681329
1.700880
1.671554
1.691105
1.725318
1.691105
1.652004
1.715543
1.700880
1.598240
1.715543
1.695992
1.700880
1.642229
1.681329
1.725318
1.710655
1.652004
1.652004
1.622678
1.666667
1.725318
1.735093
1.715543
1.710655
1.661779
1.715543
1.686217
1.637341
1.695992
1.715543
1.652004
1.749756
1.710655
1.671554
1.705767
1.691105
1.705767
1.779081
1.730205
1.691105
1.715543
1.666667
1.695992
1.676442
1.710655
1.666667
1.676442
1.739980
1.705767
1.666667
1.705767
1.700880
1.627566
1.691105
1.700880
1.637341
1.617791
1.686217
1.735093
1.671554
1.686217
1.671554
1.671554
1.686217
1.661779
1.710655
1.705767
1.671554
1.656891
1.700880
1.671554
1.661779
1.686217
1.608016
1.671554
1.710655
1.666667
1.661779
1.666667
1.608016
1.686217
1.681329
1.647116
1.632454
1.720430
1.730205
1.676442
1.681329
1.671554
1.666667
1.676442
1.754643
1.676442
1.705767
1.681329
1.539589
1.691105
1.754643
1.671554
1.656891
1.661779
1.608016
1.671554
1.671554
1.715543
1.705767
1.666667
1.652004
1.691105
1.622678
1.695992
1.661779
1.676442
1.700880
1.666667
1.695992
1.754643
1.700880
1.681329
1.710655
1.700880
1.656891
1.715543
1.686217
1.705767
1.686217
1.700880
1.671554
1.671554
1.710655
1.725318
1.642229
1.695992
1.700880
1.608016
1.735093
1.715543
1.647116
1.686217
1.671554
1.656891
1.720430
1.666667
1.603128
1.676442
1.676442
1.637341
1.691105
1.656891
1.686217
1.671554
1.666667
1.725318
1.671554
1.695992
1.705767
1.642229
1.671554
1.725318
1.691105
1.652004
1.705767
1.691105
1.695992
1.681329
1.676442
1.666667
1.661779
1.691105
1.710655
1.691105
1.710655
1.608016
1.671554
1.676442
1.686217
1.695992
1.652004
1.642229
1.637341
1.739980
1.671554
1.666667
1.656891
1.656891
1.735093
1.671554
1.661779
1.598240
1.705767
1.681329
1.730205
1.695992
1.652004
1.715543
1.617791
1.715543
1.725318
1.735093
1.671554
1.642229
1.686217
1.749756
1.676442
1.705767
1.652004
1.700880
1.656891
1.637341
1.691105
1.695992
1.700880
1.705767
1.666667
1.681329
1.671554
1.676442
1.686217
1.715543
1.695992
1.676442
1.695992
1.681329
1.671554
1.754643
1.700880
1.686217
1.686217
1.715543
1.681329
1.691105
1.671554
1.691105
1.666667
1.705767
1.705767
1.656891
1.671554
1.700880
1.676442
1.686217
1.710655
1.666667
1.608016
1.700880
1.691105
1.695992
1.637341
1.686217
1.686217
1.681329
1.676442
1.700880
1.754643
1.666667
1.676442
1.700880
1.676442
1.715543
1.715543
1.695992
1.705767
1.686217
1.700880
1.705767
1.637341
1.686217
1.710655
1.647116
1.652004
1.642229
1.691105
1.691105
1.647116
1.671554
1.739980
1.691105
1.681329
1.700880
1.695992
1.676442
1.676442
1.666667
1.691105
1.681329
1.686217
1.661779
1.642229
1.686217
1.661779
1.656891
1.671554
1.666667
1.676442
1.661779
1.744868
1.695992
1.637341
1.691105
1.705767
1.686217
1.681329
1.681329
1.730205
1.681329
1.691105
1.666667
1.725318
1.686217
1.681329
1.705767
1.725318
1.681329
1.671554
1.666667
1.715543
1.671554
1.715543
1.686217
1.700880
1.691105
1.676442
1.671554
1.691105
1.686217
1.695992
1.749756
1.715543
1.705767
1.686217
1.700880
1.686217
1.700880
1.710655
1.681329
1.686217
1.700880
1.715543
1.686217
1.598240
1.632454
1.700880
1.681329
1.671554
1.671554
1.656891
1.671554
1.710655
1.725318
1.671554
1.671554
1.686217
1.656891
1.661779
1.666667
1.671554
1.691105
1.735093
1.715543
1.700880
1.691105
1.681329
1.666667
1.691105
1.686217
1.632454
1.656891
1.647116
1.720430
1.695992
1.652004
1.681329
1.700880
1.695992
1.632454
1.686217
1.661779
1.715543
1.666667
1.695992
1.695992
1.695992
1.681329
1.681329
1.715543
1.700880
1.681329
1.686217
1.695992
1.710655
1.710655
1.695992
1.710655
1.715543
1.705767
1.676442
1.705767
1.715543
1.695992
1.700880
1.676442
1.700880
1.710655
1.710655
1.700880
1.691105
1.705767
1.676442
1.681329
1.686217
1.691105
1.700880
1.656891
1.671554
1.661779
1.661779
1.695992
1.695992
1.676442
1.681329
1.676442
1.695992
1.666667
1.652004
1.686217
1.686217
1.671554
1.695992
1.681329
1.691105
1.715543
1.695992
1.695992
1.695992
1.695992
1.686217
1.681329
1.691105
1.691105
1.681329
1.666667
1.676442
1.661779
1.691105
1.686217
1.686217
1.686217
1.676442
1.691105
1.681329
1.661779
1.666667
1.666667
1.661779
1.681329
1.695992
1.691105
1.671554
1.676442
1.691105
1.676442
1.686217
1.705767
1.695992
1.705767
1.700880
1.700880
1.720430
1.710655
1.700880
1.691105
1.705767
1.710655
1.720430
1.715543
1.730205
1.754643
1.744868
1.759531
1.749756
1.739980
1.774194
1.788856
1.764418
1.774194
1.764418
1.769306
1.744868
1.744868
1.739980
1.744868
1.759531
1.739980
1.725318
1.725318
1.715543
1.744868
1.739980
1.739980
1.749756
1.730205
1.735093
1.730205
1.735093
1.720430
1.725318
1.735093
1.720430
1.735093
1.739980
1.739980
1.735093
1.720430
1.720430
1.735093
1.744868
1.744868
1.744868
1.725318
1.725318
1.710655
1.705767
1.705767
1.730205
1.720430
1.710655
1.700880
1.700880
1.715543
1.700880
1.725318
1.735093
1.715543
1.705767
1.700880
1.695992
1.700880
1.666667
1.671554
1.661779
1.652004
1.666667
1.661779
1.656891
1.700880
1.656891
1.695992
1.681329
1.676442
1.666667
1.661779
1.676442
1.656891
1.661779
1.666667
1.656891
1.647116
1.676442
1.652004
1.666667
1.652004
1.661779
1.661779
1.656891
1.671554
1.661779
1.647116
1.666667
1.681329
1.705767
1.700880
1.691105
1.676442
1.715543
1.710655
1.710655
1.695992
1.671554
1.666667
1.666667
1.661779
1.642229
1.617791
1.637341
1.622678
1.617791
1.622678
1.598240
1.627566
1.612903
1.593353
1.612903
1.627566
1.617791
1.617791
1.617791
1.617791
1.632454
1.642229
1.637341
1.637341
1.632454
1.637341
1.637341
1.612903
1.627566
1.622678
1.608016
1.637341
1.617791
1.627566
1.622678
1.612903
1.583578
1.627566
1.617791
1.598240
1.603128
1.622678
1.608016
1.603128
1.617791
1.627566
1.632454
1.622678
1.647116
1.622678
1.642229
1.652004
1.652004
1.652004
1.652004
1.666667
1.642229
1.637341
1.671554
1.661779
1.652004
1.652004
1.656891
1.661779
1.666667
1.676442
1.671554
1.671554
1.656891
1.647116
1.652004
1.632454
1.666667
1.647116
1.642229
1.617791
1.642229
1.622678
1.642229
1.652004
1.647116
1.647116
1.632454
1.652004
1.598240
1.661779
1.627566
1.652004
1.612903
1.608016
1.647116
1.632454
1.642229
1.652004
1.661779
1.661779
1.656891
1.656891
1.656891
1.656891
1.637341
1.647116
1.666667
1.676442
1.676442
1.686217
1.656891
1.681329
1.637341
1.695992
1.686217
1.681329
1.676442
1.617791
1.725318
1.725318
1.681329
1.676442
1.642229
1.652004
1.720430
1.681329
1.715543
1.710655
1.642229
1.739980
1.739980
1.730205
1.691105
1.642229
1.720430
1.691105
1.700880
1.676442
1.676442
1.710655
1.671554
1.730205
1.715543
1.720430
1.715543
1.744868
1.715543
1.730205
1.715543
1.695992
1.744868
1.744868
1.676442
1.666667
1.739980
1.735093
1.691105
1.720430
1.705767
1.735093
1.725318
1.681329
1.710655
1.705767
1.671554
1.735093
1.686217
1.695992
1.691105
1.700880
1.705767
1.695992
1.720430
1.730205
1.744868
1.695992
1.764418
1.744868
1.735093
1.720430
1.710655
1.735093
1.686217
1.700880
1.715543
1.735093
1.739980
1.691105
1.730205
1.735093
1.754643
1.661779
1.774194
1.735093
1.759531
1.730205
1.759531
1.730205
1.774194
1.754643
1.725318
1.754643
1.744868
1.730205
1.759531
1.783969
1.739980
1.735093
1.744868
1.671554
1.735093
1.744868
1.725318
1.744868
1.725318
1.666667
1.695992
1.720430
1.666667
1.735093
1.710655
1.739980
1.769306
1.622678
1.798631
1.783969
1.730205
1.700880
1.730205
1.676442
1.700880
1.691105
1.720430
1.710655
1.691105
1.715543
1.705767
1.700880
1.705767
1.730205
1.686217
1.647116
1.681329
1.656891
1.700880
1.695992
1.652004
1.642229
1.739980
1.652004
1.656891
1.691105
1.681329
1.686217
1.671554
1.588465
1.720430
1.710655
1.681329
1.652004
1.681329
1.710655
1.671554
1.749756
1.749756
1.720430
1.647116
1.710655
1.705767
1.739980
1.700880
1.754643
1.730205
1.695992
1.681329
1.720430
1.715543
1.730205
1.647116
1.715543
1.695992
1.686217
1.637341
1.661779
1.671554
1.647116
1.612903
1.676442
1.652004
1.666667
1.632454
1.652004
1.612903
1.637341
1.652004
1.661779
1.700880
1.666667
1.661779
1.676442
1.627566
1.612903
1.661779
1.608016
1.691105
1.695992
1.627566
1.710655
1.656891
1.695992
1.647116
1.671554
1.710655
1.686217
1.735093
1.705767
1.700880
1.671554
1.647116
1.642229
1.622678
1.671554
1.637341
1.681329
1.700880
1.695992
1.735093
1.691105
1.686217
1.695992
1.671554
1.705767
1.700880
1.652004
1.647116
1.691105
1.647116
1.637341
1.700880
1.691105
1.681329
1.715543
1.671554
1.676442
1.627566
1.661779
1.720430
1.695992
1.652004
1.710655
1.676442
1.695992
1.695992
1.686217
1.686217
1.661779
1.666667
1.676442
1.647116
1.671554
1.603128
1.710655
1.710655
1.666667
1.593353
1.700880
1.666667
1.622678
1.622678
1.695992
1.661779
1.637341
1.642229
1.617791
1.705767
1.695992
1.666667
1.642229
1.647116
1.642229
1.642229
1.695992
1.666667
1.661779
1.642229
1.647116
1.666667
1.710655
1.671554
1.632454
1.681329
1.700880
1.666667
1.559140
1.715543
1.686217
1.666667
1.676442
1.627566
1.642229
1.715543
1.671554
1.681329
1.598240
1.656891
1.705767
1.656891
1.671554
1.671554
1.666667
1.705767
1.695992
1.642229
1.686217
1.637341
1.686217
1.642229
1.686217
1.671554
1.700880
1.681329
1.647116
1.700880
1.705767
1.705767
1.676442
1.661779
1.681329
1.661779
1.691105
1.735093
1.720430
1.691105
1.656891
1.695992
1.627566
1.676442
1.705767
1.710655
1.686217
1.642229
1.647116
1.661779
1.700880
1.612903
1.691105
1.705767
1.652004
1.720430
1.647116
1.715543
1.695992
1.705767
1.647116
1.710655
1.700880
1.676442
1.642229
1.705767
1.637341
1.671554
1.666667
1.691105
1.642229
1.681329
1.642229
1.695992
1.612903
1.725318
1.735093
1.656891
1.739980
1.671554
1.700880
1.691105
1.720430
1.754643
1.681329
1.735093
1.671554
1.720430
1.725318
1.700880
1.779081
1.715543
1.676442
1.671554
1.656891
1.661779
1.769306
1.705767
1.676442
1.661779
1.695992
1.725318
1.671554
1.686217
1.666667
1.705767
1.710655
1.695992
1.686217
1.681329
1.725318
1.715543
1.730205
1.691105
1.730205
1.764418
1.681329
1.715543
1.715543
1.735093
1.759531
1.700880
1.700880
1.730205
1.666667
1.725318
1.710655
1.739980
1.715543
1.681329
1.744868
1.700880
1.661779
1.700880
1.676442
1.686217
1.691105
1.656891
1.686217
1.730205
1.710655
1.715543
1.710655
1.666667
1.627566
1.632454
1.725318
1.691105
1.676442
1.695992
1.622678
1.735093
1.725318
1.666667
1.710655
1.676442
1.700880
1.661779
1.710655
1.627566
1.637341
1.661779
1.666667
1.774194
1.666667
1.671554
1.671554
1.681329
1.671554
1.681329
1.642229
1.642229
1.642229
1.656891
1.710655
1.720430
1.691105
1.637341
1.676442
1.656891
1.647116
1.647116
1.573803
1.774194
1.700880
1.681329
1.627566
1.681329
1.676442
1.656891
1.656891
1.652004
1.656891
1.656891
1.661779
1.661779
1.666667
1.632454
1.661779
1.647116
1.676442
1.666667
1.671554
1.661779
1.710655
1.647116
1.627566
1.754643
1.725318
1.681329
1.744868
1.681329
1.671554
1.666667
1.705767
1.691105
1.681329
1.691105
1.671554
1.666667
1.695992
1.676442
1.710655
1.700880
1.705767
1.622678
1.681329
1.671554
1.627566
1.661779
1.656891
1.666667
1.666667
1.681329
1.676442
1.710655
1.730205
1.661779
1.656891
1.705767
1.612903
1.676442
1.710655
1.656891
1.612903
1.686217
1.676442
1.656891
1.627566
1.739980
1.700880
1.720430
1.681329
1.695992
1.652004
1.695992
1.676442
1.656891
1.681329
1.695992
1.617791
1.676442
1.715543
1.637341
1.666667
1.656891
1.695992
1.681329
1.735093
1.715543
1.686217
1.671554
1.666667
1.695992
1.676442
1.681329
1.612903
1.705767
1.739980
1.681329
1.642229
1.671554
1.695992
1.671554
1.676442
1.700880
1.671554
1.671554
1.666667
1.710655
1.666667
1.695992
1.705767
1.686217
1.720430
1.739980
1.652004
1.739980
1.720430
1.676442
1.686217
1.671554
1.676442
1.691105
1.691105
1.661779
1.705767
1.710655
1.666667
1.642229
1.681329
1.695992
1.695992
1.681329
1.666667
1.691105
1.632454
1.705767
1.764418
1.769306
1.725318
1.671554
1.700880
1.632454
1.735093
1.774194
1.769306
1.720430
1.705767
1.681329
1.676442
1.637341
1.676442
1.652004
1.695992
1.700880
1.710655
1.676442
1.661779
1.637341
1.715543
1.661779
1.686217
1.676442
1.671554
1.705767
1.691105
1.691105
1.676442
1.686217
1.691105
1.720430
1.710655
1.695992
1.666667
1.691105
1.691105
1.710655
1.681329
1.710655
1.681329
1.686217
1.647116
1.686217
1.691105
1.666667
1.715543
1.700880
1.637341
1.710655
1.652004
1.710655
1.671554
1.676442
1.642229
1.676442
1.627566
1.661779
1.681329
1.671554
1.691105
1.686217
1.671554
1.691105
1.725318
1.700880
1.666667
1.671554
1.695992
1.652004
1.647116
1.749756
1.715543
1.720430
1.725318
1.676442
1.652004
1.735093
1.730205
1.725318
1.656891
1.754643
1.730205
1.681329
1.695992
1.705767
1.695992
1.681329
1.749756
1.705767
1.686217
1.700880
1.700880
1.647116
1.681329
1.730205
1.705767
1.642229
1.622678
1.627566
1.735093
1.656891
1.705767
1.710655
1.695992
1.671554
1.661779
1.652004
1.710655
1.735093
1.695992
1.705767
1.627566
1.666667
1.666667
1.700880
1.652004
1.705767
1.695992
1.656891
1.676442
1.705767
1.671554
1.681329
1.637341
1.744868
1.764418
1.686217
1.671554
1.691105
1.671554
1.652004
1.754643
1.681329
1.715543
1.671554
1.656891
1.695992
1.681329
1.647116
1.739980
1.695992
1.652004
1.725318
1.705767
1.681329
1.691105
1.730205
1.661779
1.691105
1.705767
1.642229
1.705767
1.691105
1.735093
1.666667
1.700880
1.647116
1.681329
1.681329
1.695992
1.691105
1.652004
1.720430
1.686217
1.695992
1.715543
1.686217
1.715543
1.700880
1.676442
1.725318
1.739980
1.710655
1.691105
1.700880
1.652004
1.700880
1.656891
1.720430
1.652004
1.710655
1.710655
1.700880
1.700880
1.676442
1.661779
1.705767
1.774194
1.710655
1.691105
1.671554
1.686217
1.6520041.5884651.5298141.5444771.6373411.5542521.6031281.6324541.5689151.5151521.5738031.6129031.5200391.5151521.6080161.6324541.5444771.5102641.6031281.4711631.4858261.5591401.5053761.5053761.5835781.5395891.5102641.5884651.5249271.5298141.5982401.5786901.5151521.5298141.6129031.6568911.5640271.6617791.6275661.5933531.6911051.5738031.6031281.6666671.5933531.6031281.6666671.6275661.5689151.6617791.5884651.5738031.6226781.6373411.5738031.6520041.5835781.5933531.6666671.6129031.5689151.6031281.6471161.6129031.5640271.6226781.6617791.6226781.5640271.6568911.6080161.5884651.6568911.5933531.5786901.6471161.6520041.5884651.5689151.6862171.5738031.6129031.6666671.6324541.5689151.6129031.6520041.6129031.5542521.6275661.6617791.5689151.5151521.6080161.6373411.5151521.4711631.4858261.6031281.7497561.9941352.1309872.0283481.9452591.9061581.8328451.7448681.7839691.8377321.6862171.7497561.7155431.6129031.6764421.6813291.5249271.5249271.5884651.6177911.5053761.6129031.5786901.5004891.5102641.6080161.5493651.4809381.5298141.5933531.5249271.4907141.5738031.6177911.5542521.4809381.5738031.5884651.4760511.5591401.5298141.4956011.5786901.5298141.5444771.6129031.5395891.5151521.5982401.6373411.5786901.4907141.6226781.5542521.5200391.6275661.5200391.5102641.6275661.6373411.5151521.5640271.6373411.6080161.5298141.5933531.5933531.5102641.5640271.6275661.5444771.5053761.6177911.6422291.5933531.5102641.6226781.6226781.5347021.5249271.5786901.5542521.5102641.5640271.6275661.5933531.5053761.6177911.6666671.5786901.5102641.5933531.6373411.5200391.6617791.5640271.5640271.6422291.6177911.5249271.5249271.6324541.5640271.5444771.6471161.5591401.5786901.6568911.5493651.6715541.6324541.5591401.6275661.6617791.5591401.5347021.5004891.6373411.6324541.5298141.5200391.6520041.5835781.5102641.5200391.6471161.5933531.5249271.6373411.5395891.5835781.6422291.5200391.5395891.5982401.6422291.5542521.5786901.6471161.5151521.5640271.6422291.6373411.5053761.5493651.6813291.5493651.5982401.6911051.5786901.6129031.6764421.5933531.5738031.6617791.6959921.5689151.5689151.7057671.6129031.5738031.7008801.6275661.5542521.6080161.6911051.6177911.5591401.6275661.6715541.6177911.5738031.6911051.5640271.6373411.6373411.5640271.6911051.5982401.6080161.7057671.6520041.5591401.6177911.6959921.6568911.5689151.6275661.6862171.6177911.5493651.5982401.6862171.6031281.5591401.6177911.6373411.5493651.6471161.6373411.5689151.6862171.5982401.5884651.6813291.6617791.5738031.6422291.7057671.6177911.5786901.6373411.6813291.5542521.6373411.6568911.5542521.6568911.6568911.5444771.5884651.6324541.5542521.5786901.6471161.5249271.5786901.6764421.6031281.5493651.6617791.6177911.5640271.6715541.6813291.5933531.5493651.6764421.6813291.5738031.5738031.6666671.6764421.5591401.5542521.5689151.6471161.5786901.5738031.6568911.6422291.5493651.6324541.6520041.5738031.5591401.6275661.6520041.5298141.6373411.6226781.5738031.6617791.5982401.5542521.6764421.5591401.6324541.6324541.5347021.6422291.6031281.5542521.6177911.6520041.5542521.5151521.6373411.5542521.5738031.6373411.5102641.6275661.6177911.5395891.6471161.6177911.5591401.6080161.6275661.6862171.5982401.5884651.6324541.6862171.5884651.5640271.6862171.5933531.5640271.6617791.6422291.5689151.5591401.6617791.6177911.5395891.6373411.6275661.5249271.5835781.6275661.5835781.5053761.5982401.6275661.5151521.4956011.5835781.5738031.5053761.5884651.5591401.5053761.6080161.6080161.6226781.5347021.5395891.5786901.5884651.5542521.5004891.6031281.6177911.5249271.5053761.5591401.6031281.5102641.5053761.6177911.6324541.5493651.5933531.6324541.5298141.5493651.6373411.5298141.6177911.6324541.5542521.5249271.5053761.5884651.6177911.5249271.6520041.5591401.5786901.6471161.5640271.6080161.6764421.6177911.5884651.6617791.5738031.5982401.6568911.5591401.5933531.6617791.5933531.5395891.6324541.6666671.5591401.5542521.6666671.6666671.5689151.5689151.6764421.5542521.6226781.6080161.5591401.6031281.6764421.6129031.5640271.6813291.6324541.5738031.6617791.6666671.5542521.6129031.6422291.652004
1.568915
1.608016
1.671554
1.637341
1.539589
1.612903
1.637341
1.539589
1.656891
1.568915
1.529814
1.608016
1.647116
1.632454
1.568915
1.642229
1.588465
1.583578
1.652004
1.608016
1.627566
1.700880
1.666667
1.578690
1.593353
1.715543
1.666667
1.573803
1.652004
1.681329
1.637341
1.573803
1.671554
1.686217
1.588465
1.564027
1.676442
1.691105
1.588465
1.583578
1.656891
1.627566
1.564027
1.681329
1.554252
1.617791
1.632454
1.554252
1.642229
1.622678
1.539589
1.568915
1.656891
1.564027
1.544477
1.608016
1.661779
1.564027
1.568915
1.676442
1.671554
1.593353
1.593353
1.695992
1.608016
1.622678
1.695992
1.656891
1.603128
1.695992
1.622678
1.598240
1.710655
1.681329
1.612903
1.705767
1.617791
1.568915
1.695992
1.612903
1.617791
1.671554
1.564027
1.661779
1.652004
1.544477
1.608016
1.671554
1.612903
1.559140
1.608016
1.676442
1.612903
1.573803
1.642229
1.681329
1.598240
1.573803
1.652004
1.671554
1.554252
1.578690
1.666667
1.632454
1.564027
1.593353
1.656891
1.598240
1.573803
1.671554
1.627566
1.588465
1.681329
1.573803
1.612903
1.661779
1.578690
1.568915
1.632454
1.666667
1.568915
1.656891
1.642229
1.568915
1.681329
1.656891
1.568915
1.656891
1.608016
1.588465
1.676442
1.578690
1.656891
1.627566
1.568915
1.676442
1.617791
1.588465
1.695992
1.578690
1.642229
1.661779
1.583578
1.593353
1.666667
1.661779
1.578690
1.583578
1.676442
1.612903
1.568915
1.612903
1.676442
1.617791
1.564027
1.593353
1.676442
1.622678
1.612903
1.681329
1.573803
1.691105
1.583578
1.568915
1.676442
1.656891
1.578690
1.608016
1.695992
1.583578
1.637341
1.632454
1.559140
1.622678
1.686217
1.608016
1.549365
1.608016
1.666667
1.564027
1.647116
1.549365
1.622678
1.568915
1.652004
1.676442
1.642229
1.583578
1.598240
1.686217
1.642229
1.568915
1.642229
1.671554
1.617791
1.559140
1.691105
1.617791
1.583578
1.666667
1.652004
1.573803
1.559140
1.647116
1.652004
1.544477
1.578690
1.671554
1.647116
1.554252
1.632454
1.686217
1.627566
1.568915
1.612903
1.656891
1.559140
1.681329
1.608016
1.564027
1.671554
1.593353
1.603128
1.671554
1.568915
1.578690
1.681329
1.637341
1.598240
1.612903
1.666667
1.608016
1.583578
1.691105
1.593353
1.554252
1.612903
1.652004
1.544477
1.617791
1.656891
1.573803
1.568915
1.642229
1.608016
1.554252
1.622678
1.612903
1.559140
1.652004
1.588465
1.549365
1.603128
1.671554
1.593353
1.554252
1.661779
1.554252
1.612903
1.671554
1.549365
1.627566
1.671554
1.564027
1.637341
1.627566
1.559140
1.578690
1.671554
1.573803
1.632454
1.632454
1.554252
1.588465
1.666667
1.608016
1.534702
1.554252
1.656891
1.583578
1.524927
1.627566
1.627566
1.564027
1.568915
1.656891
1.656891
1.559140
1.588465
1.676442
1.661779
1.568915
1.676442
1.642229
1.573803
1.637341
1.661779
1.559140
1.652004
1.612903
1.642229
1.573803
1.603128
1.661779
1.583578
1.617791
1.671554
1.564027
1.617791
1.642229
1.554252
1.627566
1.676442
1.647116
1.554252
1.568915
1.617791
1.676442
1.578690
1.559140
1.647116
1.652004
1.588465
1.559140
1.686217
1.583578
1.564027
1.666667
1.642229
1.534702
1.573803
1.637341
1.612903
1.549365
1.656891
1.612903
1.544477
1.627566
1.652004
1.568915
1.559140
1.627566
1.652004
1.568915
1.573803
1.642229
1.647116
1.554252
1.642229
1.593353
1.554252
1.656891
1.544477
1.632454
1.598240
1.564027
1.661779
1.568915
1.554252
1.612903
1.671554
1.588465
1.564027
1.637341
1.612903
1.549365
1.647116
1.608016
1.583578
1.627566
1.593353
1.564027
1.608016
1.676442
1.617791
1.598240
1.691105
1.593353
1.612903
1.647116
1.573803
1.637341
1.652004
1.578690
1.593353
1.666667
1.568915
1.612903
1.671554
1.637341
1.578690
1.637341
1.642229
1.622678
1.564027
1.603128
1.661779
1.568915
1.544477
1.632454
1.656891
1.632454
1.578690
1.559140
1.666667
1.549365
1.583578
1.656891
1.564027
1.608016
1.652004
1.554252
1.627566
1.637341
1.588465
1.608016
1.671554
1.622678
1.539589
1.642229
1.652004
1.564027
1.539589
1.622678
1.642229
1.559140
1.637341
1.647116
1.554252
1.598240
1.671554
1.642229
1.559140
1.583578
1.661779
1.637341
1.652004
1.583578
1.554252
1.608016
1.661779
1.647116
1.583578
1.568915
1.647116
1.656891
1.559140
1.666667
1.642229
1.554252
1.632454
1.676442
1.588465
1.554252
1.647116
1.666667
1.603128
1.544477
1.632454
1.656891
1.568915
1.549365
1.642229
1.622678
1.568915
1.588465
1.656891
1.656891
1.564027
1.632454
1.681329
1.617791
1.564027
1.642229
1.676442
1.583578
1.627566
1.666667
1.578690
1.573803
1.652004
1.647116
1.578690
1.617791
1.661779
1.559140
1.622678
1.671554
1.632454
1.549365
1.603128
1.652004
1.524927
1.593353
1.661779
1.544477
1.544477
1.617791
1.647116
1.583578
1.583578
1.647116
1.539589
1.632454
1.617791
1.554252
1.612903
1.661779
1.652004
1.568915
1.656891
1.588465
1.564027
1.656891
1.539589
1.593353
1.627566
1.539589
1.656891
1.564027
1.539589
1.652004
1.573803
1.603128
1.666667
1.554252
1.642229
1.593353
1.568915
1.637341
1.578690
1.573803
1.652004
1.627566
1.544477
1.622678
1.676442
1.603128
1.564027
1.632454
1.661779
1.588465
1.588465
1.656891
1.652004
1.564027
1.588465
1.652004
1.647116
1.564027
1.671554
1.593353
1.559140
1.622678
1.671554
1.612903
1.549365
1.622678
1.681329
1.593353
1.578690
1.656891
1.534702
1.617791
1.666667
1.554252
1.656891
1.632454
1.564027
1.573803
1.661779
1.627566
1.573803
1.632454
1.661779
1.612903
1.568915
1.647116
1.656891
1.573803
1.686217
1.671554
1.578690
1.588465
1.656891
1.642229
1.578690
1.578690
1.681329
1.554252
1.622678
1.637341
1.549365
1.617791
1.661779
1.554252
1.612903
1.671554
1.564027
1.559140
1.666667
1.666667
1.554252
1.578690
1.627566
1.637341
1.559140
1.578690
1.627566
1.656891
1.573803
1.632454
1.671554
1.637341
1.554252
1.632454
1.666667
1.583578
1.578690
1.661779
1.676442
1.578690
1.588465
1.598240
1.652004
1.583578
1.612903
1.686217
1.573803
1.608016
1.661779
1.588465
1.559140
1.632454
1.671554
1.593353
1.549365
1.647116
1.656891
1.573803
1.573803
1.642229
1.656891
1.573803
1.593353
1.642229
1.656891
1.573803
1.666667
1.578690
1.573803
1.656891
1.529814
1.573803
1.661779
1.642229
1.559140
1.652004
1.568915
1.637341
1.656891
1.583578
1.588465
1.608016
1.652004
1.583578
1.622678
1.661779
1.559140
1.661779
1.622678
1.559140
1.608016
1.666667
1.622678
1.583578
1.671554
1.598240
1.593353
1.666667
1.564027
1.622678
1.637341
1.568915
1.661779
1.627566
1.568915
1.588465
1.632454
1.652004
1.617791
1.549365
1.583578
1.656891
1.559140
1.593353
1.632454
1.549365
1.549365
1.598240
1.666667
1.549365
1.627566
1.603128
1.544477
1.608016
1.612903
1.524927
1.583578
1.642229
1.632454
1.559140
1.671554
1.637341
1.583578
1.617791
1.676442
1.568915
1.549365
1.647116
1.666667
1.559140
1.534702
1.652004
1.603128
1.564027
1.632454
1.603128
1.539589
1.554252
1.656891
1.529814
1.564027
1.652004
1.568915
1.593353
1.647116
1.549365
1.524927
1.617791
1.652004
1.593353
1.559140
1.608016
1.598240
1.534702
1.652004
1.627566
1.549365
1.564027
1.642229
1.612903
1.549365
1.598240
1.647116
1.573803
1.529814
1.647116
1.656891
1.568915
1.564027
1.573803
1.637341
1.564027
1.559140
1.656891
1.549365
1.549365
1.652004
1.544477
1.593353
1.647116
1.529814
1.578690
1.656891
1.573803
1.549365
1.617791
1.652004
1.598240
1.568915
1.632454
1.647116
1.568915
1.554252
1.642229
1.656891
1.564027
1.681329
1.671554
1.578690
1.573803
1.671554
1.603128
1.588465
1.632454
1.681329
1.593353
1.642229
1.656891
1.573803
1.647116
1.691105
1.573803
1.671554
1.637341
1.573803
1.700880
1.656891
1.573803
1.647116
1.652004
1.559140
1.666667
1.637341
1.559140
1.676442
1.632454
1.583578
1.681329
1.676442
1.608016
1.593353
1.676442
1.681329
1.622678
1.554252
1.661779
1.676442
1.529814
1.598240
1.671554
1.583578
1.529814
1.593353
1.666667
1.593353
1.573803
1.608016
1.652004
1.539589
1.622678
1.642229
1.564027
1.568915
1.656891
1.622678
1.568915
1.676442
1.632454
1.534702
1.603128
1.666667
1.598240
1.549365
1.588465
1.632454
1.520039
1.573803
1.647116
1.539589
1.661779
1.617791
1.578690
1.568915
1.637341
1.622678
1.568915
1.554252
1.652004
1.608016
1.593353
1.686217
1.578690
1.603128
1.686217
1.622678
1.588465
1.647116
1.695992
1.632454
1.603128
1.681329
1.593353
1.671554
1.637341
1.549365
1.705767
1.578690
1.588465
1.666667
1.573803
1.603128
1.681329
1.632454
1.524927
1.632454
1.627566
1.554252
1.647116
1.583578
1.544477
1.637341
1.588465
1.559140
1.568915
1.652004
1.612903
1.544477
1.598240
1.656891
1.656891
1.564027
1.578690
1.652004
1.632454
1.564027
1.652004
1.598240
1.539589
1.656891
1.573803
1.608016
1.647116
1.578690
1.578690
1.642229
1.524927
1.520039
1.642229
1.568915
1.505376
1.495601
1.700880
1.588465
1.520039
1.598240
1.637341
1.578690
1.520039
1.622678
1.632454
1.568915
1.573803
1.534702
1.661779
1.612903
1.524927
1.617791
1.632454
1.539589
1.642229
1.627566
1.539589
1.608016
1.647116
1.603128
1.554252
1.666667
1.608016
1.534702
1.637341
1.642229
1.559140
1.544477
1.632454
1.632454
1.534702
1.637341
1.588465
1.549365
1.622678
1.603128
1.539589
1.637341
1.603128
1.520039
1.637341
1.642229
1.573803
1.534702
1.588465
1.666667
1.539589
1.568915
1.627566
1.529814
1.656891
1.642229
1.549365
1.598240
1.622678
1.593353
1.554252
1.588465
1.637341
1.637341
1.578690
1.529814
1.617791
1.632454
1.559140
1.588465
1.686217
1.544477
1.622678
1.612903
1.564027
1.622678
1.642229
1.593353
1.637341
1.656891
1.554252
1.642229
1.647116
1.534702
1.642229
1.598240
1.573803
1.652004
1.612903
1.568915
1.666667
1.661779
1.549365
1.554252
1.617791
1.622678
1.554252
1.637341
1.534702
1.529814
1.612903
1.529814
1.583578
1.652004
1.583578
1.583578
1.564027
1.656891
1.676442
1.588465
1.549365
1.656891
1.647116
1.568915
1.559140
1.612903
1.593353
1.578690
1.627566
1.520039
1.642229
1.642229
1.603128
1.539589
1.783969
1.490714
1.666667
1.603128
1.544477
1.564027
1.715543
1.656891
1.358749
1.544477
1.700880
1.647116
1.637341
1.681329
1.529814
1.661779
1.764418
1.642229
1.666667
1.647116
1.676442
1.583578
1.666667
1.666667
1.534702
1.652004
1.671554
1.656891
1.510264
1.603128
1.554252
1.847507
1.622678
1.324536
1.427175
1.564027
1.583578
1.744868
1.612903
1.588465
1.686217
1.715543
1.554252
1.666667
1.661779
1.725318
1.485826
1.603128
1.715543
1.529814
1.652004
1.637341
1.647116
1.627566
1.715543
1.480938
1.661779
1.656891
1.588465
1.671554
1.725318
1.647116
1.524927
1.617791
1.671554
1.539589
1.681329
1.534702
1.803519
1.446725
1.656891
1.617791
1.471163
1.622678
1.612903
1.573803
1.510264
1.588465
1.744868
1.627566
1.554252
1.647116
1.603128
1.564027
1.681329
1.652004
1.612903
1.608016
1.622678
1.617791
1.573803
1.490714
1.534702
1.544477
1.661779
1.695992
1.500489
1.661779
1.632454
1.471163
1.603128
1.725318
1.705767
1.495601
1.549365
1.730205
1.476051
1.515152
1.642229
1.627566
1.515152
1.510264
1.686217
1.617791
1.598240
1.666667
1.603128
1.480938
1.637341
1.642229
1.637341
1.510264
1.695992
1.612903
1.573803
1.568915
1.627566
1.583578
1.520039
1.705767
1.622678
1.544477
1.676442
1.612903
1.520039
1.656891
1.700880
1.627566
1.617791
1.642229
1.647116
1.642229
1.573803
1.681329
1.564027
1.564027
1.627566
1.622678
1.573803
1.544477
1.549365
1.622678
1.568915
1.451613
1.608016
1.695992
1.515152
1.656891
1.661779
1.622678
1.544477
1.573803
1.578690
1.666667
1.510264
1.627566
1.554252
1.710655
1.637341
1.695992
1.559140
1.744868
1.744868
1.480938
1.598240
1.534702
1.832845
1.989247
1.632454
1.422287
1.446725
1.862170
2.052786
1.676442
2.243402
1.256109
1.583578
1.500489
1.798631
1.270772
1.534702
1.471163
2.091887
1.959922
2.033236
1.637341
1.940371
2.126100
1.891496
1.964809
2.082111
1.524927
1.407625
1.622678
1.774194
1.446725
1.989247
1.466276
1.583578
1.779081
1.168133
1.867058
1.925709
1.974585
1.686217
1.187683
1.153470
2.018573
1.695992
1.652004
1.632454
1.598240
2.023460
2.052786
1.720430
1.559140
1.808407
1.388074
1.153470
1.461388
2.287390
1.754643
1.661779
0.757576
1.710655
1.187683
1.739980
1.695992
1.554252
1.598240
1.568915
1.388074
1.021505
1.378299
1.779081
0.874878
1.573803
1.617791
1.417400
1.930596
1.774194
1.749756
1.979472
1.759531
1.764418
1.353861
1.392962
1.823069
1.798631
1.388074
1.925709
1.564027
1.388074
1.656891
1.544477
1.827957
1.451613
1.852395
2.170088
1.055718
1.730205
1.959922
1.593353
1.177908
2.057674
1.573803
1.744868
0.948192
1.832845
1.598240
1.959922
1.656891
1.436950
1.520039
1.515152
1.666667
1.974585
0.625611
2.414467
1.041056
1.700880
2.282502
1.695992
1.647116
0.884653
2.346041
2.116325
1.803519
2.091887
0.879765
1.945259
1.979472
1.681329
1.353861
2.101662
1.280547
1.857283
1.202346
1.774194
1.011730
1.632454
1.187683
1.681329
1.852395
1.446725
1.876833
1.564027
1.950147
1.070381
1.632454
2.135875
1.559140
1.573803
1.358749
1.793744
1.691105
1.456500
1.803519
1.075269
1.554252
1.730205
1.138807
1.236559
2.101662
1.177908
2.272727
1.842620
1.559140
2.057674
1.192571
1.691105
1.392962
2.101662
1.612903
1.578690
1.842620
1.256109
1.451613
1.187683
1.461388
1.451613
1.466276
1.510264
1.446725
1.461388
1.304985
1.652004
1.955034
1.314761
1.695992
2.052786
2.101662
2.243402
1.461388
1.578690
1.930596
1.891496
1.661779
2.023460
1.881720
0.967742
1.959922
1.695992
1.700880
1.011730
1.920821
1.456500
2.116325
2.003910
2.126100
2.067449
1.603128
1.852395
1.476051
0.606061
2.072336
1.857283
1.744868
1.950147
1.876833
1.520039
1.207234
1.226784
1.353861
1.637341
1.686217
1.730205
1.764418
1.539589
1.842620
1.412512
2.003910
1.094819
1.559140
1.588465
1.036168
1.446725
1.813294
1.715543
1.695992
1.260997
1.510264
1.549365
2.223851
1.588465
1.793744
1.896383
1.236559
1.324536
1.466276
1.451613
1.627566
1.256109
1.842620
1.436950
1.539589
1.930596
2.130987
1.397849
1.915934
1.246334
1.456500
1.060606
2.008798
1.700880
1.324536
1.520039
1.915934
1.427175
1.920821
1.334311
1.554252
1.158358
1.862170
1.373412
1.867058
1.744868
1.666667
1.383187
2.179863
1.060606
1.764418
1.808407
1.221896
1.676442
1.412512
1.490714
2.038123
2.292278
1.823069
1.539589
1.539589
1.896383
1.652004
2.003910
1.436950
1.622678
1.510264
1.407625
1.300098
1.177908
1.304985
1.129032
1.153470
1.050831
0.992180
1.045943
1.075269
1.104594
1.182796
1.187683
1.124145
0.957967
1.260997
1.192571
1.129032
1.256109
1.285435
1.368524
1.177908
1.397849
1.207234
1.192571
1.476051
1.500489
1.911046
1.739980
1.373412
1.324536
1.715543
1.730205
1.666667
1.627566
1.637341
1.969697
1.520039
1.930596
2.057674
1.730205
1.676442
1.744868
1.915934
1.901271
2.370479
2.218964
1.793744
2.688172
1.735093
1.759531
2.600196
2.160313
2.350929
1.744868
2.326491
2.091887
2.003910
2.487781
2.067449
2.243402
1.994135
1.769306
2.561095
2.223851
1.984360
2.174976
2.013685
1.876833
1.637341
1.432063
2.184751
1.319648
2.077224
1.622678
2.096774
1.710655
1.818182
1.177908
2.155425
1.598240
1.412512
1.202346
2.038123
1.515152
1.353861
1.637341
1.906158
1.187683
1.827957
1.319648
2.184751
1.994135
1.705767
1.720430
1.324536
1.432063
1.774194
1.803519
1.314761
1.739980
1.695992
1.314761
1.314761
1.695992
1.925709
1.231672
2.135875
1.544477
1.520039
1.671554
1.632454
1.803519
1.060606
1.695992
1.466276
1.329423
1.617791
1.876833
1.573803
1.446725
1.769306
1.026393
0.826002
1.671554
1.920821
0.909091
0.860215
1.994135
1.515152
1.568915
0.933529
2.033236
1.246334
1.358749
1.241447
1.735093
1.275660
1.383187
1.622678
1.524927
1.177908
1.319648
2.062561
1.471163
0.645161
1.862170
1.779081
1.485826
1.285435
1.241447
1.867058
1.749756
0.850440
1.373412
1.598240
1.348974
1.671554
0.762463
1.989247
1.915934
1.202346
1.568915
1.309873
1.832845
1.407625
1.461388
1.808407
1.197458
2.204301
2.008798
1.554252
1.427175
1.661779
1.632454
1.564027
1.109482
1.187683
1.871945
1.705767
1.783969
1.075269
1.803519
1.397849
2.028348
1.652004
2.028348
1.798631
1.246334
1.710655
0.821114
1.808407
2.111437
1.480938
1.955034
1.231672
1.779081
1.710655
2.404692
2.233627
1.148583
1.725318
1.749756
2.033236
1.285435
1.852395
1.725318
1.867058
1.476051
1.783969
1.759531
1.759531
1.436950
1.813294
1.070381
1.871945
1.529814
1.617791
1.549365
1.774194
1.368524
2.013685
1.275660
2.003910
1.603128
0.982405
1.476051
1.515152
1.764418
2.214076
1.632454
2.052786
1.549365
1.710655
1.925709
1.700880
1.353861
1.788856
1.138807
1.681329
1.368524
1.769306
2.130987
1.661779
1.676442
1.099707
1.984360
1.050831
2.013685
1.754643
1.603128
1.642229
1.700880
1.270772
1.779081
1.959922
2.248289
1.500489
1.886608
1.974585
1.832845
1.510264
2.033236
1.803519
1.441838
1.564027
2.126100
1.060606
1.925709
1.124145
1.456500
1.974585
1.089932
1.901271
1.485826
1.989247
1.280547
0.933529
1.647116
1.192571
1.901271
1.383187
1.573803
1.969697
1.994135
0.850440
1.686217
1.593353
1.529814
2.072336
1.676442
1.598240
1.226784
1.705767
1.857283
1.212121
1.725318
1.353861
1.378299
1.456500
1.300098
1.202346
1.309873
1.114370
1.085044
1.124145
1.192571
1.055718
1.099707
1.304985
1.177908
1.207234
0.918866
1.451613
1.260997
1.143695
1.402737
1.554252
1.598240
1.353861
1.427175
1.314761
1.739980
1.451613
1.666667
1.490714
1.392962
1.495601
1.769306
1.392962
1.945259
1.471163
1.793744
1.681329
2.243402
1.529814
2.140762
1.397849
1.871945
2.072336
2.355816
1.769306
2.624633
2.248289
1.700880
2.228739
1.603128
2.360704
2.350929
1.901271
1.759531
1.710655
1.608016
1.783969
1.964809
1.603128
1.823069
1.608016
1.221896
1.769306
2.179863
1.588465
1.383187
2.013685
2.043011
1.808407
1.598240
2.248289
1.578690
1.725318
1.412512
2.634409
1.857283
1.779081
1.432063
1.588465
1.827957
1.363636
1.827957
1.984360
1.524927
1.798631
1.847507
1.231672
1.862170
1.769306
1.353861
1.862170
1.935484
1.280547
1.260997
2.316716
1.593353
1.886608
1.495601
1.612903
2.214076
1.476051
2.072336
1.617791
1.695992
1.402737
1.798631
1.627566
1.652004
1.436950
1.695992
2.111437
1.564027
1.793744
1.373412
1.510264
1.935484
1.612903
1.598240
1.930596
1.402737
1.808407
1.461388
1.202346
1.901271
1.627566
2.047898
1.402737
1.700880
1.691105
1.666667
1.363636
1.544477
1.485826
1.881720
1.192571
1.627566
1.691105
1.495601
1.466276
1.559140
1.143695
1.559140
1.432063
1.520039
1.911046
1.730205
1.119257
1.925709
1.808407
1.876833
1.471163
1.915934
1.368524
1.720430
1.319648
1.451613
1.441838
1.979472
1.495601
1.329423
1.226784
1.964809
1.681329
1.529814
1.060606
1.739980
1.979472
1.637341
1.461388
1.842620
1.280547
1.788856
1.671554
1.524927
1.695992
1.060606
1.549365
1.515152
0.884653
1.568915
1.344086
1.803519
1.617791
1.285435
1.823069
1.339198
1.490714
1.251222
1.735093
1.715543
1.275660
1.730205
1.793744
1.984360
1.207234
1.798631
1.515152
1.583578
1.559140
1.725318
1.739980
1.710655
1.383187
1.705767
1.285435
1.656891
1.407625
1.202346
0.982405
2.043011
1.480938
1.505376
1.480938
2.067449
1.471163
1.529814
1.764418
1.368524
1.573803
1.529814
1.637341
1.681329
1.642229
1.358749
1.593353
1.730205
1.094819
1.803519
1.671554
1.432063
0.860215
2.209189
1.324536
1.832845
1.456500
1.764418
1.534702
1.739980
1.485826
1.598240
1.578690
1.617791
1.950147
1.867058
1.544477
1.495601
1.177908
1.842620
1.358749
1.886608
1.275660
2.150538
1.666667
1.608016
1.417400
2.043011
1.383187
1.099707
1.881720
1.915934
1.368524
1.666667
1.070381
1.989247
1.661779
1.617791
1.788856
1.705767
1.935484
1.300098
1.485826
1.388074
1.798631
1.143695
1.871945
1.280547
1.735093
1.627566
1.759531
1.749756
1.099707
1.529814
2.043011
1.857283
1.417400
2.116325
1.857283
1.808407
1.700880
1.735093
1.735093
1.476051
1.544477
1.500489
1.476051
1.568915
1.368524
1.383187
1.608016
1.422287
1.260997
1.451613
1.407625
1.109482
1.632454
1.251222
1.353861
1.221896
1.402737
1.212121
1.422287
1.847507
1.207234
1.603128
1.480938
2.116325
1.490714
1.500489
1.402737
1.774194
1.593353
1.559140
1.700880
1.788856
1.871945
1.544477
1.842620
1.661779
1.749756
1.744868
1.573803
1.427175
1.461388
1.974585
1.373412
1.930596
1.480938
2.292278
1.246334
1.823069
1.627566
1.695992
2.297165
2.096774
1.920821
1.656891
1.280547
1.715543
1.559140
1.764418
1.808407
2.086999
1.647116
1.627566
1.417400
1.544477
1.695992
1.691105
1.700880
1.568915
1.637341
2.082111
2.253177
1.241447
2.243402
1.798631
1.363636
1.881720
1.427175
1.739980
2.106549
2.062561
1.974585
0.938416
1.700880
1.436950
1.652004
1.871945
1.769306
1.363636
1.608016
2.448680
1.725318
2.057674
1.876833
1.329423
2.170088
1.935484
1.143695
1.441838
1.862170
1.407625
1.280547
2.082111
1.109482
1.989247
1.901271
1.177908
1.304985
1.334311
1.705767
1.021505
1.251222
1.226784
1.700880
1.544477
1.959922
1.485826
1.422287
1.319648
1.392962
1.735093
1.212121
1.177908
1.402737
1.251222
1.295210
1.319648
1.402737
1.251222
1.695992
1.402737
1.192571
1.515152
1.705767
1.339198
1.735093
1.485826
2.067449
1.309873
1.138807
1.871945
1.217009
1.471163
1.524927
1.705767
1.285435
1.485826
1.832845
1.524927
1.339198
1.940371
1.520039
1.559140
1.124145
1.827957
1.436950
1.617791
1.852395
1.388074
1.476051
1.603128
1.881720
2.013685
1.173021
1.705767
1.524927
1.739980
1.500489
1.495601
1.915934
1.505376
1.608016
1.691105
1.652004
1.334311
1.735093
1.705767
1.534702
1.495601
1.588465
1.744868
1.612903
1.627566
1.818182
1.969697
1.573803
1.534702
1.774194
1.686217
1.627566
1.422287
1.363636
1.691105
1.617791
1.754643
1.788856
1.441838
1.622678
1.583578
1.700880
1.710655
1.940371
1.319648
1.720430
1.979472
1.334311
1.529814
1.627566
1.774194
1.402737
1.397849
1.422287
2.047898
1.725318
1.999022
1.573803
1.534702
2.086999
1.749756
1.358749
1.334311
1.402737
1.524927
1.671554
1.911046
1.397849
1.744868
2.008798
1.344086
1.471163
2.140762
1.236559
1.168133
1.793744
1.808407
1.793744
1.871945
1.549365
1.554252
1.402737
1.686217
1.827957
1.187683
1.524927
2.179863
1.285435
1.104594
1.700880
2.223851
1.524927
1.554252
1.133920
1.603128
1.358749
1.603128
1.945259
1.612903
1.388074
1.622678
2.072336
1.608016
1.212121
2.008798
1.612903
1.021505
1.901271
1.681329
1.314761
1.779081
1.739980
1.735093
1.583578
1.583578
1.231672
1.432063
1.529814
1.661779
1.871945
2.101662
1.920821
1.422287
2.199413
1.583578
1.959922
1.148583
1.832845
2.346041
1.539589
1.256109
1.466276
1.793744
1.608016
1.373412
1.436950
1.476051
1.285435
1.818182
1.290323
0.777126
1.471163
1.764418
1.583578
1.627566
1.647116
1.994135
1.559140
1.260997
1.881720
1.593353
1.505376
1.940371
1.480938
1.407625
1.862170
1.006843
1.495601
2.106549
1.260997
1.598240
1.148583
1.451613
1.695992
1.392962
1.549365
1.661779
1.637341
1.842620
1.583578
1.202346
1.485826
1.388074
1.300098
1.529814
1.217009
1.676442
1.715543
1.456500
1.617791
1.050831
1.407625
1.803519
1.500489
1.520039
1.476051
1.686217
1.549365
1.695992
1.217009
1.358749
1.495601
1.583578
1.647116
1.451613
2.013685
1.490714
1.554252
1.529814
1.466276
1.603128
1.363636
1.500489
1.436950
1.549365
1.495601
1.520039
1.221896
1.593353
1.544477
1.588465
1.608016
1.564027
1.603128
1.700880
1.500489
1.661779
1.666667
1.700880
1.642229
1.588465
1.617791
1.700880
1.559140
1.656891
1.695992
1.612903
1.637341
1.637341
1.798631
1.705767
1.695992
1.642229
1.896383
1.803519
1.549365
1.642229
1.730205
1.427175
1.559140
1.671554
1.588465
1.573803
1.427175
1.759531
1.603128
1.603128
1.505376
1.539589
1.588465
1.490714
1.539589
1.608016
1.598240
1.529814
1.578690
1.617791
1.549365
1.627566
1.681329
1.612903
1.564027
1.676442
1.720430
1.632454
1.652004
1.656891
1.666667
1.647116
1.622678
1.642229
1.671554
1.588465
1.661779
1.617791
1.588465
1.622678
1.617791
1.612903
1.681329
1.598240
1.612903
1.652004
1.578690
1.603128
1.647116
1.603128
1.671554
1.661779
1.568915
1.617791
1.676442
1.695992
1.617791
1.578690
1.691105
1.627566
1.598240
1.691105
1.627566
1.510264
1.656891
1.676442
1.529814
1.627566
1.720430
1.593353
1.603128
1.617791
1.515152
1.632454
1.671554
1.505376
1.573803
1.598240
1.593353
1.524927
1.568915
1.681329
1.564027
1.417400
1.627566
1.715543
1.515152
1.608016
1.583578
1.568915
1.637341
1.500489
1.617791
1.608016
1.588465
1.593353
1.666667
1.637341
1.510264
1.608016
1.652004
1.632454
1.568915
1.666667
1.583578
1.539589
1.627566
1.695992
1.656891
1.524927
1.691105
1.681329
1.588465
1.568915
1.661779
1.637341
1.598240
1.573803
1.700880
1.686217
1.559140
1.637341
1.705767
1.632454
1.564027
1.612903
1.671554
1.647116
1.583578
1.666667
1.686217
1.559140
1.588465
1.700880
1.686217
1.568915
1.564027
1.661779
1.598240
1.559140
1.720430
1.573803
1.598240
1.676442
1.598240
1.568915
1.642229
1.681329
1.612903
1.568915
1.676442
1.622678
1.578690
1.700880
1.666667
1.573803
1.593353
1.686217
1.686217
1.652004
1.578690
1.686217
1.652004
1.578690
1.652004
1.598240
1.559140
1.637341
1.691105
1.608016
1.608016
1.681329
1.539589
1.622678
1.656891
1.529814
1.632454
1.612903
1.559140
1.652004
1.573803
1.544477
1.647116
1.534702
1.622678
1.642229
1.573803
1.505376
1.656891
1.661779
1.642229
1.642229
1.686217
1.564027
1.539589
1.681329
1.647116
1.573803
1.642229
1.671554
1.559140
1.603128
1.686217
1.598240
1.598240
1.676442
1.559140
1.617791
1.691105
1.598240
1.593353
1.671554
1.691105
1.627566
1.593353
1.700880
1.603128
1.578690
1.715543
1.617791
1.578690
1.705767
1.637341
1.573803
1.573803
1.559140
1.559140
1.681329
1.559140
1.603128
1.681329
1.691105
1.568915
1.549365
1.691105
1.549365
1.568915
1.676442
1.661779
1.573803
1.647116
1.627566
1.637341
1.608016
1.666667
1.691105
1.647116
1.593353
1.705767
1.661779
1.608016
1.593353
1.554252
1.686217
1.686217
1.632454
1.476051
1.759531
1.710655
1.578690
1.666667
1.632454
1.554252
1.647116
1.637341
1.500489
1.710655
1.720430
1.603128
1.564027
1.666667
1.666667
1.583578
1.578690
1.676442
1.637341
1.578690
1.642229
1.656891
1.554252
1.627566
1.622678
1.588465
1.642229
1.686217
1.588465
1.559140
1.647116
1.720430
1.642229
1.564027
1.666667
1.676442
1.598240
1.549365
1.700880
1.661779
1.568915
1.612903
1.671554
1.642229
1.573803
1.612903
1.671554
1.559140
1.608016
1.686217
1.593353
1.588465
1.686217
1.617791
1.588465
1.666667
1.564027
1.656891
1.661779
1.573803
1.666667
1.593353
1.578690
1.681329
1.612903
1.544477
1.617791
1.656891
1.603128
1.554252
1.598240
1.691105
1.583578
1.549365
1.632454
1.652004
1.583578
1.612903
1.666667
