1.588465
1.593353
1.598240
1.588465
1.564027
1.588465
1.598240
1.598240
1.593353
1.598240
1.588465
1.588465
1.583578
1.583578
1.588465
1.598240
1.598240
1.608016
1.603128
1.622678
1.637341
1.647116
1.632454
1.637341
1.603128
1.617791
1.622678
1.622678
1.598240
1.622678
1.608016
1.593353
1.593353
1.583578
1.578690
1.568915
1.568915
1.578690
1.549365
1.564027
1.564027
1.578690
1.549365
1.559140
1.573803
1.573803
1.559140
1.588465
1.309873
2.038123
1.710655
1.407625
2.932551
1.818182
2.595308
1.612903
1.451613
0.742913
0.909091
1.720430
0.615836
0.659824
0.679374
2.057674
0.826002
1.036168
2.302053
0.430108
1.886608
0.674487
1.407625
1.632454
0.664712
1.348974
0.522972
0.909091
1.847507
1.881720
1.334311
1.309873
1.744868
1.119257
1.564027
2.360704
1.026393
2.336266
1.138807
0.689150
2.360704
1.744868
1.270772
1.564027
1.505376
0.650049
1.471163
1.847507
1.827957
1.471163
1.363636
1.187683
1.334311
1.441838
1.520039
1.627566
1.676442
1.720430
1.710655
1.744868
1.730205
1.730205
1.715543
1.691105
1.686217
1.705767
1.661779
1.656891
1.642229
1.622678
1.642229
1.608016
1.617791
1.588465
1.593353
1.588465
1.573803
1.568915
1.603128
1.578690
1.568915
1.583578
1.588465
1.554252
1.593353
1.568915
1.588465
1.564027
1.583578
1.573803
1.564027
1.573803
1.564027
1.588465
1.593353
1.588465
1.588465
1.588465
1.564027
1.632454
1.168133
1.974585
2.258065
1.906158
3.602151
2.316716
1.881720
2.238514
1.466276
1.177908
2.018573
1.378299
0.733138
2.849462
1.432063
1.735093
1.642229
1.300098
1.549365
1.964809
2.434018
1.720430
1.427175
2.238514
2.077224
2.218964
2.546432
1.143695
2.536657
2.790811
1.485826
0.899316
2.140762
2.903226
1.661779
2.209189
1.388074
0.987292
1.001955
2.409580
0.317693
1.392962
3.142717
0.977517
0.303030
1.534702
1.505376
1.476051
1.608016
2.277615
0.845552
0.869990
1.041056
1.319648
1.515152
1.666667
1.735093
1.808407
1.832845
1.867058
1.827957
1.818182
1.813294
1.769306
1.725318
1.705767
1.720430
1.710655
1.720430
1.720430
1.681329
1.676442
1.656891
1.632454
1.627566
1.617791
1.617791
1.598240
1.593353
1.593353
1.578690
1.593353
1.617791
1.559140
1.593353
1.608016
1.603128
1.554252
1.529814
1.554252
1.568915
1.564027
1.578690
1.583578
1.608016
1.568915
1.583578
1.598240
1.617791
0.278592
1.710655
2.741935
2.287390
2.746823
1.217009
0.977517
1.148583
2.214076
2.370479
1.383187
1.177908
1.999022
0.464321
1.783969
1.964809
0.586510
1.964809
1.177908
0.689150
0.909091
2.336266
0.283480
0.557185
0.894428
1.290323
1.730205
1.520039
3.665689
0.576735
1.173021
2.487781
1.549365
2.218964
2.414467
1.686217
2.668622
1.896383
1.476051
2.883675
1.490714
1.735093
1.573803
3.338221
3.509286
3.450635
1.085044
1.774194
3.416422
2.673509
0.801564
0.860215
0.997067
1.265885
1.495601
1.739980
1.774194
1.871945
1.867058
1.803519
1.788856
1.793744
1.769306
1.779081
1.774194
1.774194
1.744868
1.725318
1.710655
1.676442
1.676442
1.666667
1.686217
1.656891
1.647116
1.637341
1.598240
1.612903
1.627566
1.637341
1.603128
1.603128
1.593353
1.564027
1.554252
1.564027
1.598240
1.568915
1.593353
1.559140
1.578690
1.564027
1.598240
1.583578
1.603128
1.564027
1.598240
1.588465
1.559140
1.588465
0.777126
1.754643
2.653959
2.038123
0.537634
1.256109
1.940371
1.495601
2.727273
2.453568
1.837732
1.236559
1.974585
2.781036
1.466276
1.241447
0.669599
1.583578
1.867058
0.747801
1.544477
2.052786
1.739980
1.114370
1.730205
0.659824
1.036168
1.417400
1.158358
2.688172
1.446725
2.429130
1.485826
2.443793
1.881720
1.466276
1.427175
2.756598
2.409580
1.173021
1.407625
1.529814
0.591398
1.344086
1.754643
0.478983
1.143695
0.777126
1.153470
2.878788
1.886608
1.104594
1.133920
1.192571
1.417400
1.534702
1.671554
1.642229
1.774194
1.759531
1.710655
1.788856
1.764418
1.774194
1.695992
1.700880
1.705767
1.676442
1.676442
1.700880
1.671554
1.686217
1.656891
1.661779
1.637341
1.647116
1.632454
1.603128
1.598240
1.593353
1.617791
1.632454
1.593353
1.608016
1.617791
1.564027
1.598240
1.583578
1.593353
1.583578
1.588465
1.608016
1.564027
1.568915
1.583578
1.588465
1.593353
1.598240
1.603128
1.608016
1.588465
1.236559
1.505376
2.590420
1.422287
1.045943
1.911046
1.554252
1.471163
1.432063
0.723363
1.827957
1.583578
1.588465
1.823069
2.194526
1.720430
1.989247
1.994135
1.217009
0.928641
2.018573
1.867058
1.554252
2.873900
0.860215
0.821114
1.329423
1.231672
1.666667
1.070381
0.488759
0.948192
1.256109
1.705767
1.441838
2.072336
1.676442
1.202346
1.940371
1.901271
1.911046
2.082111
2.282502
1.353861
1.564027
0.498534
1.881720
2.956989
3.391984
2.086999
1.104594
1.021505
1.099707
1.339198
1.568915
1.705767
1.764418
1.783969
1.818182
1.803519
1.808407
1.759531
1.769306
1.739980
1.720430
1.725318
1.686217
1.700880
1.681329
1.632454
1.632454
1.622678
1.612903
1.622678
1.578690
1.593353
1.622678
1.593353
1.559140
1.608016
1.578690
1.573803
1.564027
1.573803
1.603128
1.583578
1.593353
1.568915
1.559140
1.564027
1.593353
1.588465
1.564027
1.568915
1.593353
1.588465
1.564027
1.554252
1.573803
1.045943
1.661779
2.829912
2.355816
1.075269
1.334311
3.035191
0.943304
1.969697
2.502444
2.732160
1.661779
1.808407
2.003910
1.476051
1.109482
1.441838
2.067449
2.096774
0.796676
1.319648
1.935484
1.573803
0.772239
2.028348
1.388074
2.253177
1.265885
0.806452
1.182796
2.570870
1.309873
2.424242
0.967742
1.554252
1.583578
1.383187
1.153470
2.013685
1.588465
2.013685
1.241447
0.855327
1.456500
1.612903
1.559140
1.974585
1.764418
1.285435
1.471163
1.304985
1.505376
1.471163
1.324536
1.280547
1.441838
1.622678
1.637341
1.671554
1.661779
1.695992
1.710655
1.710655
1.700880
1.691105
1.656891
1.656891
1.652004
1.642229
1.627566
1.612903
1.603128
1.617791
1.603128
1.603128
1.588465
1.598240
1.588465
1.598240
1.568915
1.564027
1.598240
1.583578
1.583578
1.568915
1.588465
1.593353
1.568915
1.578690
1.578690
1.588465
1.573803
1.573803
1.573803
1.573803
1.583578
1.603128
1.578690
1.593353
1.583578
1.573803
1.593353
1.598240
1.603128
1.593353
1.564027
1.588465
1.578690
1.612903
1.593353
1.588465
1.608016
1.588465
1.578690
1.588465
1.598240
1.598240
1.598240
1.593353
1.568915
1.588465
1.598240
1.583578
1.593353
1.578690
1.608016
1.583578
1.583578
1.612903
1.603128
1.598240
1.608016
1.612903
1.593353
1.593353
1.593353
1.598240
1.603128
1.598240
1.598240
1.608016
1.598240
1.603128
1.593353
1.573803
1.583578
1.603128
1.568915
1.603128
1.588465
1.593353
1.612903
1.617791
1.583578
1.588465
1.583578
1.578690
1.583578
1.573803
1.588465
1.578690
1.588465
1.593353
1.603128
1.608016
1.593353
1.598240
1.598240
1.622678
1.593353
1.608016
1.593353
1.588465
1.593353
1.603128
1.593353
1.578690
1.578690
1.612903
1.608016
1.603128
1.603128
1.598240
1.612903
1.608016
1.583578
1.593353
1.583578
1.593353
1.588465
1.568915
1.603128
1.603128
1.598240
1.593353
1.603128
1.598240
1.588465
1.598240
1.598240
1.573803
1.593353
1.564027
1.568915
1.598240
1.578690
1.603128
1.603128
1.598240
1.593353
1.593353
1.598240
1.593353
1.593353
1.608016
1.583578
1.598240
1.593353
1.603128
1.593353
1.608016
1.598240
1.598240
1.608016
1.598240
1.598240
1.593353
1.593353
1.612903
1.603128
1.598240
1.593353
1.588465
1.588465
1.598240
1.573803
1.593353
1.598240
1.598240
1.603128
1.598240
1.588465
1.583578
1.588465
1.588465
1.568915
1.593353
1.603128
1.603128
1.598240
1.568915
1.578690
1.603128
1.608016
1.588465
1.598240
1.578690
1.598240
1.608016
1.593353
1.603128
1.588465
1.598240
1.608016
1.603128
1.593353
1.598240
1.603128
1.573803
1.603128
1.593353
1.583578
1.588465
1.612903
1.573803
1.612903
1.593353
1.603128
1.588465
1.603128
1.588465
1.622678
1.588465
1.593353
1.598240
1.608016
1.617791
1.593353
1.578690
1.612903
1.608016
1.603128
1.617791
1.588465
1.612903
1.583578
1.612903
1.598240
1.578690
1.603128
1.593353
1.598240
1.578690
1.598240
1.583578
1.598240
1.573803
1.568915
1.593353
1.603128
1.608016
1.598240
1.617791
1.588465
1.593353
1.593353
1.583578
1.593353
1.603128
1.588465
1.617791
1.588465
1.608016
1.603128
1.564027
1.603128
1.603128
1.583578
1.608016
1.588465
1.588465
1.598240
1.603128
1.578690
1.588465
1.593353
1.578690
1.598240
1.608016
1.612903
1.598240
1.608016
1.578690
1.593353
1.583578
1.598240
1.583578
1.568915
1.593353
1.588465
1.593353
1.603128
1.598240
1.588465
1.573803
1.627566
1.598240
1.612903
1.598240
1.573803
1.598240
1.578690
1.593353
1.617791
1.568915
1.578690
1.578690
1.568915
1.598240
1.593353
1.588465
1.603128
1.612903
1.588465
1.603128
1.583578
1.603128
1.612903
1.593353
1.588465
1.617791
1.598240
1.598240
1.583578
1.622678
1.608016
1.573803
1.588465
1.603128
1.578690
1.593353
1.603128
1.598240
1.598240
1.598240
1.598240
1.588465
1.608016
1.588465
1.583578
1.622678
1.588465
1.598240
1.583578
1.598240
1.598240
1.578690
1.603128
1.593353
1.608016
1.612903
1.588465
1.593353
1.583578
1.559140
1.583578
1.588465
1.593353
1.588465
1.593353
1.603128
1.583578
1.593353
1.603128
1.598240
1.583578
1.617791
1.573803
1.612903
1.598240
1.598240
1.573803
1.583578
1.598240
1.603128
1.593353
1.588465
1.593353
1.588465
1.593353
1.603128
1.578690
1.598240
1.612903
1.622678
1.603128
1.598240
1.598240
1.598240
1.598240
1.583578
1.593353
1.598240
1.588465
1.603128
1.593353
1.598240
1.593353
1.578690
1.612903
1.593353
1.583578
1.593353
1.598240
1.608016
1.583578
1.583578
1.588465
1.568915
1.603128
1.598240
1.593353
1.608016
1.617791
1.588465
1.593353
1.608016
1.612903
1.603128
1.588465
1.598240
1.608016
1.598240
1.598240
1.593353
1.598240
1.603128
1.598240
1.603128
1.603128
1.583578
1.593353
1.617791
1.593353
1.603128
1.593353
1.583578
1.603128
1.593353
1.578690
1.573803
1.598240
1.588465
1.622678
1.603128
1.627566
1.608016
1.632454
1.617791
1.627566
1.617791
1.617791
1.608016
1.608016
1.608016
1.593353
1.588465
1.598240
1.593353
1.588465
1.578690
1.588465
1.583578
1.568915
1.583578
1.573803
1.578690
1.608016
1.588465
1.573803
1.578690
1.583578
1.573803
1.593353
1.588465
1.593353
1.578690
1.583578
1.573803
1.588465
1.603128
1.583578
1.588465
1.603128
1.588465
1.603128
1.593353
1.593353
1.593353
1.603128
1.598240
1.612903
1.617791
1.608016
1.603128
1.598240
1.593353
1.598240
1.617791
1.608016
1.627566
1.617791
1.627566
1.603128
1.612903
1.622678
1.612903
1.622678
1.617791
1.598240
1.603128
1.622678
1.598240
1.603128
1.622678
1.583578
1.573803
1.593353
1.573803
1.578690
1.578690
1.593353
1.593353
1.568915
1.568915
1.583578
1.593353
1.573803
1.593353
1.583578
1.588465
1.573803
1.598240
1.593353
1.568915
1.588465
1.593353
1.583578
1.583578
1.583578
1.564027
1.598240
1.583578
1.598240
1.588465
1.598240
1.608016
1.598240
1.598240
1.583578
1.617791
1.578690
1.598240
1.593353
1.598240
1.612903
1.593353
1.588465
1.612903
1.617791
1.583578
1.603128
1.608016
1.608016
1.622678
1.593353
1.617791
1.583578
1.583578
1.612903
1.598240
1.598240
1.632454
1.642229
1.647116
1.637341
1.652004
1.642229
1.656891
1.632454
1.622678
1.627566
1.603128
1.612903
1.603128
1.622678
1.598240
1.603128
1.559140
1.559140
1.608016
1.612903
1.632454
1.617791
1.603128
1.593353
1.583578
1.598240
1.583578
1.573803
1.544477
1.520039
1.520039
1.524927
1.510264
1.534702
1.559140
1.573803
1.559140
1.593353
1.568915
1.554252
1.573803
1.593353
1.544477
1.573803
1.568915
1.564027
1.564027
1.593353
1.603128
1.598240
1.583578
1.573803
1.598240
1.588465
1.583578
1.593353
1.598240
1.603128
1.583578
1.568915
1.603128
1.608016
1.627566
1.593353
1.603128
1.617791
1.617791
1.608016
1.612903
1.603128
1.593353
1.593353
1.612903
1.593353
1.603128
1.608016
1.617791
1.612903
1.622678
1.617791
1.612903
1.608016
1.603128
1.612903
1.617791
1.612903
1.593353
1.617791
1.617791
1.603128
1.603128
1.617791
1.593353
1.608016
1.603128
1.612903
1.598240
1.603128
1.593353
1.603128
1.612903
1.583578
1.608016
1.588465
1.603128
1.573803
1.617791
1.603128
1.603128
1.598240
1.593353
1.583578
1.617791
1.627566
1.603128
1.593353
1.593353
1.598240
1.612903
1.603128
1.608016
1.612903
1.588465
1.876833
1.559140
1.603128
1.554252
1.700880
1.026393
1.720430
1.138807
1.598240
2.130987
0.869990
2.082111
1.089932
1.559140
1.353861
1.344086
1.427175
1.847507
1.378299
1.427175
2.302053
0.532747
0.923754
1.383187
1.656891
2.145650
1.622678
1.720430
1.656891
2.086999
2.086999
1.867058
2.228739
1.676442
1.886608
1.544477
2.106549
1.085044
0.625611
2.155425
1.177908
1.309873
2.023460
1.730205
1.285435
0.850440
1.710655
2.135875
1.867058
0.782014
1.881720
2.385142
2.869013
1.192571
1.779081
2.673509
1.666667
1.676442
1.827957
1.984360
1.202346
2.018573
2.184751
1.666667
1.925709
0.909091
1.671554
1.940371
1.295210
1.867058
1.964809
2.072336
1.573803
1.813294
1.344086
1.485826
1.715543
1.583578
1.544477
1.647116
0.923754
0.508309
1.906158
1.402737
1.652004
1.955034
1.749756
2.023460
2.346041
1.207234
1.221896
2.326491
1.867058
1.798631
1.642229
2.952102
1.603128
1.373412
1.559140
0.263930
2.526882
2.365591
1.246334
1.456500
2.072336
1.813294
1.661779
1.681329
1.109482
2.673509
1.006843
1.173021
2.487781
1.867058
2.096774
1.285435
1.075269
1.871945
1.339198
1.578690
1.710655
0.904203
1.955034
1.769306
1.886608
1.857283
1.388074
3.157380
1.681329
1.774194
1.999022
1.925709
0.997067
1.823069
1.969697
1.520039
1.974585
1.578690
1.173021
1.671554
1.011730
0.923754
1.070381
2.013685
1.730205
1.637341
1.544477
1.275660
1.847507
2.165200
0.488759
1.955034
2.155425
1.686217
2.155425
2.013685
1.241447
1.700880
1.827957
1.534702
1.955034
1.769306
1.402737
1.534702
1.539589
2.043011
1.749756
2.145650
2.013685
1.876833
1.955034
0.674487
1.158358
1.876833
1.202346
1.764418
1.466276
1.529814
1.339198
1.476051
1.529814
2.033236
1.524927
1.436950
1.397849
1.754643
1.402737
1.788856
1.241447
1.500489
1.402737
2.140762
1.671554
1.647116
1.695992
1.446725
1.295210
1.564027
2.091887
1.466276
1.300098
0.596285
1.735093
1.124145
1.251222
1.520039
1.334311
1.857283
0.630499
1.925709
1.612903
1.060606
1.637341
1.334311
1.832845
1.016618
1.705767
2.140762
1.055718
1.783969
1.647116
1.568915
2.272727
1.500489
1.212121
1.212121
1.182796
1.686217
1.168133
1.881720
1.256109
0.728250
1.725318
2.306940
2.008798
1.925709
1.749756
1.827957
1.319648
1.632454
1.490714
1.363636
1.075269
1.407625
1.495601
1.055718
1.622678
0.967742
2.165200
2.013685
1.754643
1.529814
2.140762
1.334311
1.480938
1.652004
2.018573
1.011730
1.652004
1.207234
1.549365
1.559140
1.686217
1.955034
1.573803
2.331378
2.580645
1.554252
1.725318
1.915934
1.285435
1.436950
1.329423
1.124145
2.326491
2.150538
1.231672
1.055718
1.911046
1.329423
1.715543
1.260997
1.456500
1.011730
1.432063
1.656891
1.847507
2.174976
1.999022
1.021505
1.769306
0.874878
2.468231
1.505376
1.656891
2.150538
1.842620
2.170088
0.889541
1.446725
1.705767
2.209189
1.549365
1.075269
1.436950
1.309873
1.769306
1.598240
1.637341
1.930596
2.077224
1.055718
1.422287
1.588465
1.739980
1.652004
1.344086
1.554252
2.399804
1.764418
2.096774
1.622678
2.155425
1.969697
2.062561
2.077224
1.549365
1.129032
2.179863
1.695992
2.448680
2.008798
1.974585
1.788856
1.754643
1.114370
1.241447
1.827957
1.681329
0.904203
2.341153
1.358749
1.353861
2.297165
1.857283
1.309873
1.446725
1.143695
1.490714
1.964809
1.935484
2.336266
2.238514
1.397849
1.422287
1.446725
1.192571
1.231672
1.622678
1.451613
1.217009
1.637341
1.798631
1.837732
1.461388
1.891496
2.013685
1.876833
2.487781
1.598240
1.666667
1.358749
2.023460
2.727273
1.212121
0.933529
1.803519
1.955034
2.008798
1.358749
1.397849
1.163245
1.197458
1.593353
1.603128
1.823069
1.647116
1.378299
1.290323
1.691105
1.686217
2.038123
1.744868
1.818182
1.813294
1.798631
1.329423
1.769306
1.275660
1.461388
1.451613
1.837732
2.174976
2.077224
1.759531
0.889541
1.075269
1.559140
1.573803
1.832845
1.793744
2.243402
1.344086
2.409580
1.373412
1.832845
1.480938
2.067449
2.360704
1.798631
1.510264
1.461388
1.573803
2.038123
1.818182
1.568915
0.689150
1.466276
1.226784
1.656891
2.272727
1.744868
1.016618
1.060606
1.739980
1.720430
1.891496
1.642229
1.852395
1.739980
1.422287
1.573803
1.847507
1.300098
1.788856
1.422287
1.920821
2.233627
1.065494
1.358749
1.793744
1.827957
1.207234
1.490714
1.735093
1.940371
1.656891
1.798631
1.554252
1.686217
1.251222
1.608016
1.500489
1.241447
1.300098
1.471163
1.896383
0.987292
1.344086
0.982405
1.466276
1.593353
1.075269
1.050831
1.578690
2.003910
1.001955
1.818182
2.443793
1.969697
1.109482
1.593353
1.495601
1.559140
1.231672
2.101662
1.896383
2.502444
1.138807
1.055718
1.969697
1.622678
1.524927
2.609971
1.622678
1.774194
1.661779
1.173021
1.862170
1.524927
1.666667
1.813294
2.047898
1.554252
1.871945
2.218964
1.153470
2.003910
1.534702
2.028348
0.869990
1.515152
1.818182
1.114370
1.979472
1.417400
1.603128
2.086999
1.969697
1.197458
0.571848
1.275660
1.353861
1.603128
1.647116
1.520039
2.057674
1.070381
2.409580
2.052786
2.028348
0.752688
0.992180
1.402737
2.287390
2.238514
0.527859
1.774194
1.695992
0.576735
1.715543
1.471163
1.089932
2.228739
2.321603
1.417400
1.754643
2.043011
1.520039
1.427175
1.104594
2.013685
1.564027
2.306940
2.047898
1.681329
1.471163
1.705767
1.417400
1.725318
1.901271
1.334311
2.165200
1.974585
1.251222
1.573803
1.480938
1.158358
1.720430
2.429130
1.871945
1.265885
1.564027
1.500489
1.842620
1.099707
1.583578
1.529814
1.539589
1.940371
1.554252
1.476051
1.471163
1.050831
1.642229
1.632454
1.256109
1.842620
1.241447
1.075269
2.443793
1.212121
1.632454
1.324536
1.520039
1.759531
1.788856
1.837732
1.813294
1.148583
1.339198
1.720430
1.720430
1.412512
1.392962
1.769306
1.867058
1.070381
2.023460
1.925709
2.380254
2.644184
2.145650
1.436950
1.295210
1.867058
0.997067
1.695992
1.827957
0.972630
1.275660
1.197458
1.984360
1.070381
1.490714
1.544477
1.407625
2.038123
1.730205
1.920821
1.515152
1.622678
1.549365
1.217009
1.823069
1.260997
1.207234
1.940371
1.813294
1.339198
1.911046
1.265885
1.705767
2.023460
1.774194
1.779081
2.179863
1.363636
1.695992
0.938416
1.823069
2.214076
1.353861
1.138807
1.705767
1.876833
1.691105
1.764418
1.632454
1.779081
1.715543
1.627566
1.886608
1.089932
1.779081
1.510264
2.218964
1.945259
1.642229
1.793744
1.236559
1.339198
1.622678
1.642229
1.226784
1.520039
2.140762
1.251222
1.451613
1.652004
1.383187
2.184751
2.018573
1.207234
1.001955
1.549365
1.485826
1.744868
1.695992
1.436950
1.006843
1.260997
